time (s)	magX	magY	magZ
5981.172575	226.767975	43.775570	-34.950321
5981.175489	223.904160	43.424900	-32.495617
5981.178822	221.274109	42.723553	-28.988895
5981.182150	218.994736	42.314438	-27.235535
5981.185486	216.189362	41.379311	-24.897720
5981.188821	213.793106	41.262421	-23.027470
5981.192183	211.455292	40.911751	-19.929865
5981.195486	209.409714	39.918175	-18.468731
5981.198827	206.370544	39.801285	-15.897136
5981.202153	205.026291	39.509056	-14.494448
5981.205487	202.396255	39.158386	-12.624197
5981.208814	200.584457	39.099941	-10.929281
5981.212155	198.772644	38.164814	-9.292811
5981.215481	196.668610	38.164814	-7.247224
5981.218820	194.681473	37.931034	-5.786090
5981.222153	192.986557	37.463470	-5.376973
5981.225515	190.648743	37.288136	-4.032730
5981.228819	189.596725	37.405025	-2.688486
5981.232153	187.843369	36.995907	-1.519579
5981.235515	185.914673	36.762127	-0.292227
5981.238818	184.395081	36.353008	1.052016
5981.242153	183.109299	35.827003	2.279369
5981.245482	181.531265	36.119228	3.798948
5981.248814	179.953247	35.534775	4.091175
5981.252147	178.609009	35.125656	4.558738
5981.256349	176.738754	35.417885	6.078317
5981.259703	175.569839	34.950321	6.896552
5981.263059	173.874924	34.190533	7.831677
5981.266396	172.589127	34.482758	7.831677
5981.269290	172.063126	34.248978	8.883694
5981.272568	171.303329	34.132088	10.227938
5981.275907	170.485092	33.489189	11.455289
5981.279279	169.257751	33.547634	11.689071
5981.282568	168.088837	32.963181	13.150205
5981.285488	167.329056	32.904736	12.390414
5981.288808	166.452377	32.963181	13.383986
5981.292148	165.341904	31.735825	13.793103
5981.295477	164.757462	32.028053	14.669784
5981.298810	163.939209	31.677380	15.312682
5981.302140	162.478073	31.735825	14.962010
5981.305476	161.835175	30.976036	16.656927
5981.308806	161.133835	30.917591	17.650497
5981.312139	160.841614	31.268263	18.644068
5981.315474	160.490936	30.976036	18.410286
5981.318833	159.088257	30.274693	18.176504
5981.322162	158.503799	30.508474	18.819405
5981.325475	157.744019	31.034481	19.403856
5981.328808	156.925781	30.040911	20.455875
5981.332137	156.925781	30.683809	20.572765
5981.335473	156.399765	30.216248	20.631210
5981.338800	155.347748	30.157801	21.332554
5981.342136	155.873764	30.450027	20.923437
5981.345467	154.880188	30.391582	20.748100
5981.348809	154.471069	30.625364	21.917007
5981.352139	154.061951	30.917591	21.215664
5981.355473	153.243713	30.742254	21.566336
5981.358808	153.419052	30.976036	21.215664
5981.362142	153.886612	30.800701	21.800117
5981.366420	152.834595	31.443600	22.501461
5981.369731	153.009933	31.618935	21.566336
5981.373054	153.419052	31.092926	21.449446
5981.376313	153.594391	31.385153	21.157219
5981.379648	153.711288	31.443600	22.267679
5981.382554	153.535934	31.677380	21.624781
5981.385894	154.003494	31.852718	21.858562
5981.389220	154.237289	31.677380	21.040327
5981.392559	154.295731	31.677380	20.806547
5981.395466	154.880188	31.794271	20.689655
5981.398799	155.289307	32.028053	20.397429
5981.402138	155.581528	32.437172	20.338982
5981.405465	155.990646	32.144947	20.163647
5981.408813	156.458206	32.729401	20.163647
5981.412138	156.750443	32.495617	19.403856
5981.415465	157.334885	32.904736	18.936295
5981.418796	158.211578	33.021626	19.170076
5981.422130	158.912918	32.846291	17.884277
5981.425465	159.438919	32.904736	17.533606
5981.428793	159.438919	32.846291	17.475161
5981.432124	160.081833	33.021626	17.241379
5981.435462	160.607834	32.495617	16.481590
5981.438797	160.841614	33.255405	16.247808
5981.442132	161.718292	33.313854	16.130919
5981.445463	162.711853	33.372299	15.429573
5981.448796	163.062531	33.372299	14.962010
5981.452137	163.588547	33.956753	14.026885
5981.455464	164.523666	33.839859	13.851549
5981.458792	165.692581	34.190533	14.026885
5981.462129	166.569260	34.190533	13.793103
5981.465456	167.212158	34.950321	13.267096
5981.468793	167.738159	35.242550	11.922852
5981.472166	168.673294	35.593220	11.922852
5981.476747	171.303329	36.060783	10.695500
5981.479652	171.946228	36.645237	10.461719
5981.483019	173.816483	36.528347	8.649913
5981.486321	174.400940	37.112801	8.416131
5981.489668	175.394516	37.638809	7.247224
5981.492573	177.147858	37.989479	7.247224
5981.495919	178.024536	38.573933	5.435418
5981.499237	180.420807	38.983051	4.149620
5981.502549	181.414383	39.041496	2.922268
5981.505886	183.226181	39.976620	1.870251
5981.508786	184.511978	40.911751	0.233781
5981.512122	186.616013	41.554649	-1.227352
5981.515460	187.901810	41.963764	-1.987142
5981.518788	189.655167	41.905319	-3.915838
5981.522118	190.940979	42.782001	-5.493863
5981.525452	192.869659	43.658680	-6.954997
5981.528790	194.389252	44.476913	-8.416131
5981.532121	196.317947	44.476913	-10.461719
5981.535456	198.831100	45.295151	-10.987726
5981.538789	200.935120	45.236702	-12.565751
5981.542121	203.331375	46.171829	-14.845119
5981.545451	205.786087	46.405609	-16.364700
5981.548780	207.188766	47.282291	-19.345411
5981.552124	209.351257	47.516071	-20.455875
5981.555454	211.747528	48.100525	-21.858562
5981.558814	213.559311	48.275860	-24.839275
5981.562124	216.130920	48.977203	-26.651081
5981.565451	218.410278	49.561657	-28.345997
5981.568813	220.514328	50.379898	-30.800701
5981.572112	222.793701	51.022793	-32.554062
5981.575442	225.832840	51.373463	-34.774986
5981.578785	228.345993	52.542370	-37.814144
5981.582126	230.625366	52.483929	-39.684395
5981.585447	233.080078	53.594387	-41.963764
5981.589650	238.047928	55.055523	-48.509644
5981.592991	240.736420	55.347752	-50.789009
5981.596364	242.898895	56.750443	-53.594387
5981.599741	245.879608	57.159554	-56.808884
5981.603061	248.860306	58.094681	-59.672707
5981.605882	252.074814	59.146698	-63.120979
5981.609200	254.412628	59.614258	-66.569260
5981.612572	257.568665	61.133839	-70.485100
5981.615869	260.549377	62.127411	-74.985390
5981.618775	263.646973	63.763882	-78.316772
5981.622114	266.861481	65.225014	-82.933960
5981.625448	269.199310	66.160141	-86.674461
5981.628777	272.180023	66.861488	-91.233200
5981.632114	275.336060	67.855057	-94.739922
5981.635446	278.959686	69.023964	-100.000000
5981.638775	282.232605	70.017532	-104.617180
5981.642129	285.388672	71.712448	-109.877266
5981.645443	288.720032	72.998253	-115.429565
5981.648771	291.934540	74.751610	-121.332550
5981.652103	295.032135	75.628288	-126.241959
5981.655453	298.714203	77.264755	-132.261841
5981.658773	302.863800	78.901222	-137.755707
5981.662103	305.844543	80.245468	-143.775574
5981.665443	309.059021	81.472816	-150.087662
5981.668769	312.390411	82.817062	-157.101105
5981.672103	316.014038	84.453537	-164.465225
5981.675445	319.403870	85.096436	-171.420212
5981.678774	322.618347	86.616013	-177.907654
5981.682106	325.832855	87.901810	-186.557571
5981.685459	329.631805	89.304504	-193.687897
5981.688772	333.021606	90.064285	-202.104050
5981.692103	335.826996	91.583870	-209.818817
5981.695436	339.216827	92.635887	-216.656921
5981.700136	345.470490	95.090591	-235.476334
5981.703091	348.684967	96.727058	-244.243118
5981.706351	351.548798	97.837517	-253.126831
5981.709633	354.821747	99.590881	-262.828766
5981.712940	356.750427	100.526009	-272.121582
5981.715854	360.374054	102.045586	-282.115723
5981.719199	362.185852	103.565170	-292.285217
5981.722532	364.991241	104.675629	-302.980713
5981.725857	366.452362	106.370544	-313.734650
5981.729232	368.614838	107.305672	-323.962585
5981.732098	370.309753	109.234367	-334.190521
5981.735431	372.004669	110.286377	-345.412048
5981.738778	373.348938	111.981293	-357.218018
5981.742108	373.816498	114.026878	-369.491516
5981.745432	375.102295	115.195786	-380.829926
5981.748765	375.336060	117.416718	-393.220337
5981.752100	375.745178	119.053185	-405.493866
5981.755430	375.803619	120.923439	-417.182922
5981.758763	374.926941	123.027466	-430.508484
5981.762098	374.985382	124.488602	-443.132690
5981.765429	373.991821	125.832840	-457.217987
5981.768761	372.530670	127.703094	-470.543518
5981.772104	370.601990	129.631790	-485.213318
5981.775430	368.673309	131.268265	-498.480408
5981.778760	365.809479	132.261841	-511.981293
5981.782097	362.711853	134.248978	-526.534180
5981.785427	358.912933	135.008759	-540.736389
5981.788764	354.938629	136.528351	-554.821716
5981.792093	350.905884	137.580353	-568.673279
5981.795425	345.996490	138.106369	-582.758606
5981.798755	340.385742	139.158386	-596.551697
5981.802087	335.067200	140.385742	-611.513733
5981.805424	328.579773	140.794861	-625.657532
5981.808817	321.975433	141.087082	-654.997070
5981.812936	307.247223	141.379303	-667.329041
5981.816291	298.831085	141.788422	-680.888367
5981.819606	290.064301	141.554642	-694.447693
5981.822958	281.122162	141.262421	-707.422546
5981.826297	271.361786	140.853302	-719.988281
5981.829211	261.309174	140.093521	-732.787842
5981.832551	250.379898	139.158386	-744.067810
5981.835878	238.924591	138.573929	-755.815308
5981.839189	227.936890	137.638809	-766.919922
5981.842094	216.014023	136.411453	-777.557007
5981.845421	203.448273	135.417877	-787.726501
5981.848755	190.648743	134.248978	-798.071289
5981.852123	177.381653	132.963181	-807.364075
5981.855425	163.763885	131.502045	-814.962036
5981.858749	149.561661	130.450027	-823.261230
5981.862089	136.119217	128.170654	-830.742249
5981.865416	121.215668	127.293983	-837.521912
5981.868746	105.669197	125.540611	-843.015747
5981.872088	90.824081	124.021042	-848.042114
5981.875418	75.160721	122.559906	-852.776123
5981.878753	59.380478	120.748100	-857.334900
5981.882082	43.366451	118.936302	-859.497375
5981.885412	27.527761	116.423141	-861.309143
5981.888750	11.221508	114.552895	-863.120911
5981.892091	-5.961426	112.799538	-862.770264
5981.895440	-21.975452	111.572182	-863.179382
5981.898745	-38.632378	109.468147	-862.887207
5981.902081	-54.412621	107.130341	-861.542969
5981.905424	-71.011101	104.617180	-859.029785
5981.908751	-86.908241	102.571594	-856.282898
5981.912083	-103.156052	100.818237	-852.250122
5981.915418	-118.877853	97.720627	-848.509583
5981.920071	-150.204559	92.285217	-838.573914
5981.922949	-164.523666	89.070717	-830.742249
5981.926301	-178.725891	86.265343	-824.254822
5981.929612	-194.097015	83.050850	-816.072449
5981.933001	-207.773239	79.953239	-809.292786
5981.935869	-221.683212	76.680305	-800.175354
5981.939196	-234.365875	73.290474	-791.233215
5981.942498	-246.756287	70.251312	-782.232605
5981.945846	-259.263580	67.329048	-771.712463
5981.949168	-270.952667	63.588543	-761.075378
5981.952080	-281.881958	59.848042	-750.613708
5981.955408	-292.518982	56.399769	-738.749268
5981.958745	-302.220917	52.600819	-727.410889
5981.962070	-312.390411	49.094097	-716.423157
5981.965411	-321.800110	45.996494	-704.617187
5981.968742	-330.333130	42.197548	-692.811218
5981.972077	-338.807739	38.983051	-679.661011
5981.975410	-346.054932	36.002338	-667.562805
5981.978737	-352.951477	32.787846	-654.763306
5981.982070	-359.964935	29.982466	-641.671509
5981.985410	-365.984802	27.235535	-629.398010
5981.988758	-371.887787	24.547049	-615.838684
5981.992074	-376.680298	22.209234	-602.746887
5981.995407	-381.531250	19.286966	-589.187622
5981.998734	-385.563995	16.890707	-576.154297
5982.002071	-389.713623	14.845119	-563.413208
5982.005401	-393.863251	12.390414	-550.496765
5982.008742	-396.084167	10.520164	-537.346619
5982.012081	-398.889526	8.825249	-523.787231
5982.015405	-401.168915	6.662770	-511.221497
5982.018737	-403.448303	5.260082	-497.720612
5982.022073	-404.500305	4.383401	-485.388672
5982.025438	-406.019867	2.279369	-472.121582
5982.030090	-407.247223	-0.876680	-447.866730
5982.033006	-408.065460	-1.811806	-434.716553
5982.036331	-407.773193	-2.746932	-423.202789
5982.039660	-406.896545	-3.915838	-411.221497
5982.042922	-407.247223	-4.967855	-399.006439
5982.045832	-406.136749	-5.727644	-387.492706
5982.049158	-405.610748	-6.838106	-376.329651
5982.052487	-404.149628	-7.597896	-365.049683
5982.055821	-402.980713	-8.240795	-353.243713
5982.059161	-400.701324	-9.234365	-342.781982
5982.062065	-399.006439	-10.169491	-332.378723
5982.065399	-397.253052	-11.221508	-321.449432
5982.068740	-395.090576	-12.215078	-312.098206
5982.072066	-392.928131	-12.741087	-302.746948
5982.075401	-390.414948	-13.267096	-293.103455
5982.078731	-387.901794	-14.085330	-283.869080
5982.082065	-385.447083	-15.780245	-274.693146
5982.085397	-382.875519	-16.014027	-266.277039
5982.088729	-380.362366	-16.540035	-257.743988
5982.092067	-377.206299	-17.592052	-248.977203
5982.095401	-374.517822	-18.819405	-241.320877
5982.098758	-371.887787	-18.877850	-233.664520
5982.102061	-368.848633	-19.871420	-226.651077
5982.105397	-366.101685	-20.748100	-219.228531
5982.108722	-363.354767	-21.332554	-211.981293
5982.112067	-359.555817	-21.741673	-205.376984
5982.115400	-356.341309	-22.618351	-197.895966
5982.118725	-352.834595	-22.969025	-191.934540
5982.122058	-350.146118	-23.728813	-185.563995
5982.125396	-346.756287	-23.904150	-179.076569
5982.128750	-343.366455	-24.079485	-173.348923
5982.132059	-340.911743	-24.196377	-168.205719
5982.135391	-337.755707	-24.547049	-161.016953
5982.139643	-330.683807	-24.780828	-151.607254
5982.142937	-327.878418	-25.365284	-145.645828
5982.146232	-325.073059	-25.248394	-140.794861
5982.149574	-321.741669	-25.423729	-135.885437
5982.152926	-318.702515	-25.365284	-130.450027
5982.156257	-316.014038	-24.897720	-126.651085
5982.159177	-312.682648	-25.248394	-122.092346
5982.162502	-310.052612	-25.715956	-117.358269
5982.165878	-307.305664	-25.014612	-113.383987
5982.169259	-304.383392	-25.014612	-109.409698
5982.172081	-301.402679	-24.605494	-106.253647
5982.175393	-298.012848	-24.780828	-101.870255
5982.178719	-295.324371	-24.780828	-97.779076
5982.182055	-292.285217	-24.722383	-94.798363
5982.185396	-289.713623	-24.722383	-91.233200
5982.188725	-286.966675	-24.137930	-87.609581
5982.192053	-283.985962	-23.962595	-84.979546
5982.195391	-281.706604	-23.261251	-81.706604
5982.198724	-279.427246	-24.254822	-78.375221
5982.202057	-277.264771	-23.845703	-75.628288
5982.205385	-274.751617	-24.137930	-72.764465
5982.208717	-271.946228	-23.787258	-70.192871
5982.212048	-269.082397	-24.079485	-67.270599
5982.215380	-267.621277	-24.254822	-64.932785
5982.218717	-264.815918	-24.137930	-62.828754
5982.222054	-262.945648	-24.079485	-59.906490
5982.225380	-260.958496	-24.313267	-57.042664
5982.228722	-258.737579	-24.605494	-56.049095
5982.232053	-256.692017	-24.897720	-53.535946
5982.235384	-254.938629	-24.254822	-51.373463
5982.238728	-253.068375	-24.897720	-49.795441
5982.242053	-250.613663	-24.956165	-47.223846
5982.245384	-249.152542	-24.663939	-45.996494
5982.248716	-247.691422	-24.839275	-44.009354
5982.253349	-244.009354	-25.189949	-40.736408
5982.256255	-242.080658	-25.832848	-39.041496
5982.259607	-240.619522	-25.482174	-37.814144
5982.262927	-239.099930	-25.131502	-37.112801
5982.266306	-238.047928	-25.423729	-34.658096
5982.269155	-236.353012	-25.482174	-34.015198
5982.272492	-234.833435	-25.248394	-32.320282
5982.275803	-233.956741	-24.547049	-31.268263
5982.279131	-232.437180	-25.131502	-30.274693
5982.282050	-231.326706	-25.131502	-28.462887
5982.285380	-229.982468	-25.131502	-27.819988
5982.288713	-228.345993	-24.605494	-26.651081
5982.292044	-228.170654	-24.897720	-25.540621
5982.295376	-226.475739	-24.663939	-25.189949
5982.298713	-225.657516	-24.722383	-23.904150
5982.302054	-224.313263	-24.430157	-23.436586
5982.305376	-223.144363	-24.254822	-22.326126
5982.308709	-222.443008	-24.079485	-21.274109
5982.312039	-221.157211	-24.196377	-21.391001
5982.315380	-220.280533	-23.845703	-20.222092
5982.318705	-219.403870	-24.313267	-19.637638
5982.322039	-219.286972	-24.021040	-19.053185
5982.325373	-218.410278	-24.079485	-18.293396
5982.328714	-217.650482	-24.079485	-16.656927
5982.332045	-216.890717	-24.196377	-15.897136
5982.335373	-215.955597	-24.021040	-16.189363
5982.338733	-215.721802	-23.904150	-15.546463
5982.342038	-215.254242	-23.904150	-14.611338
5982.345387	-214.436005	-23.962595	-13.968439
5982.348709	-213.968445	-23.670368	-13.851549
5982.352036	-214.085342	-24.021040	-12.857978
5982.355368	-213.383987	-24.254822	-13.442431
5982.358700	-212.916428	-24.079485	-13.033314
5982.363387	-212.331970	-24.605494	-12.039742
5982.366242	-211.747528	-24.313267	-12.448860
5982.369634	-212.156631	-24.780828	-12.741087
5982.372947	-211.630630	-25.131502	-13.033314
5982.376255	-211.396835	-24.722383	-11.805962
5982.379132	-211.572174	-25.306839	-11.805962
5982.382489	-211.572174	-25.306839	-11.572180
5982.385793	-211.279968	-25.248394	-11.630626
5982.389130	-211.221497	-25.482174	-11.747516
5982.392466	-211.864395	-25.599066	-11.922852
5982.395361	-211.864395	-26.066628	-12.331969
5982.398701	-212.624191	-26.300409	-12.682642
5982.402029	-212.331970	-26.125072	-12.507306
5982.405365	-212.098190	-25.832848	-12.507306
5982.408698	-212.799530	-26.300409	-13.325541
5982.412037	-212.974854	-26.534191	-13.851549
5982.415369	-213.851547	-26.241964	-14.143775
5982.418699	-213.968445	-25.832848	-14.319112
5982.422028	-214.202209	-26.592636	-15.371127
5982.425404	-215.020462	-26.709526	-15.078900
5982.428694	-215.254242	-26.709526	-15.254237
5982.432055	-215.897125	-26.417299	-16.890707
5982.435367	-216.598480	-26.183519	-16.540035
5982.438697	-217.299820	-26.241964	-17.767387
5982.442025	-217.942719	-26.358854	-17.825832
5982.445363	-218.527176	-26.709526	-17.533606
5982.448697	-218.936295	-26.358854	-18.936295
5982.452025	-220.280533	-26.592636	-19.462303
5982.455361	-221.157211	-26.592636	-20.864992
5982.458698	-221.975449	-26.417299	-21.449446
5982.462022	-222.793701	-26.417299	-22.150789
5982.465362	-224.021027	-26.651081	-23.319696
5982.468709	-225.131516	-26.767973	-24.079485
5982.472022	-225.891281	-26.884863	-24.371712
5982.476282	-228.404449	-27.527761	-26.300409
5982.479544	-229.222687	-27.644651	-27.586206
5982.482871	-230.391571	-27.177090	-28.287550
5982.486204	-231.618927	-27.352425	-29.865574
5982.489569	-232.729385	-27.703098	-31.326708
5982.492472	-234.132080	-28.053770	-32.086502
5982.495782	-235.943893	-27.936878	-33.722969
5982.499144	-237.346573	-28.229105	-34.774986
5982.502472	-238.398605	-28.404442	-36.236118
5982.505370	-239.976624	-28.872004	-37.872589
5982.508696	-241.379303	-29.047340	-39.509056
5982.512040	-242.898895	-30.333138	-41.203976
5982.515352	-244.652252	-30.157801	-42.782001
5982.518687	-245.938034	-30.508474	-44.827587
5982.522017	-247.925186	-30.391582	-46.697838
5982.525356	-249.561661	-31.326708	-47.808300
5982.528689	-251.665680	-31.618935	-50.029224
5982.532018	-253.243713	-32.203392	-51.899475
5982.535351	-255.289322	-32.904736	-54.120399
5982.538684	-257.510223	-32.612507	-56.691994
5982.542018	-259.263580	-32.670956	-58.445351
5982.545352	-261.484497	-33.489189	-60.315601
5982.548687	-263.997681	-33.489189	-63.237869
5982.552022	-266.686157	-33.664524	-65.458801
5982.555364	-268.907074	-34.190533	-67.971947
5982.558678	-271.127991	-33.956753	-70.309761
5982.562019	-272.998230	-34.482758	-73.173584
5982.565351	-275.862061	-34.365868	-76.037407
5982.568700	-277.790771	-35.008766	-78.842781
5982.572014	-280.771484	-34.424313	-81.940392
5982.575354	-282.466400	-34.891876	-85.680893
5982.578682	-285.622467	-34.891876	-88.310928
5982.582015	-288.077148	-35.417885	-91.700760
5982.586646	-293.220337	-35.417885	-98.772644
5982.589536	-295.850372	-35.710110	-102.805374
5982.592889	-298.538879	-35.885448	-105.201637
5982.596240	-301.928680	-36.119228	-109.468147
5982.599631	-304.383392	-35.885448	-113.968445
5982.602458	-306.896545	-36.353008	-118.234955
5982.605773	-310.227936	-36.236118	-122.618355
5982.609104	-312.799530	-36.645237	-127.060196
5982.612436	-315.663361	-37.288136	-131.852722
