time (s)	magX	magY	magZ
4098.383787	463.062531	312.916412	-594.798401
4098.387119	469.491516	304.675629	-621.040344
4098.390452	475.745209	295.265930	-647.340698
4098.394726	487.609589	274.167145	-698.480408
4098.397970	491.759216	262.010529	-724.021057
4098.401304	495.558167	248.918777	-750.379883
4098.404648	498.714203	236.469910	-776.621887
4098.407985	500.526001	222.092346	-801.987183
4098.410866	503.039185	207.071869	-826.884827
4098.414207	502.746918	191.291641	-851.724121
4098.417570	503.039185	174.751602	-876.095886
4098.420900	502.630035	158.211578	-899.473938
4098.424247	501.168915	140.444183	-922.676758
4098.427120	498.947998	122.501457	-945.704285
4098.430452	495.616577	103.682053	-967.095276
4098.433785	492.168335	85.622444	-988.077148
4098.437124	488.194031	66.043251	-1007.656372
4098.440447	483.109283	46.171829	-1027.761597
4098.443786	476.388062	25.657511	-1046.288696
4098.447113	470.309784	4.850964	-1063.296265
4098.450448	462.711853	-17.475161	-1079.894775
4098.453781	455.347717	-38.047924	-1095.149048
4098.457109	446.873199	-60.666275	-1108.357666
4098.460452	438.573944	-82.349503	-1120.455811
4098.463777	429.105804	-104.617180	-1132.787842
4098.467122	418.527161	-127.586212	-1142.255981
4098.470446	407.948578	-151.022797	-1150.555176
4098.473781	397.662201	-173.699600	-1157.627075
4098.477114	385.914673	-197.428406	-1163.062622
4098.480444	373.582703	-220.572754	-1167.270508
4098.483779	361.133850	-243.775558	-1169.666870
4098.487105	347.632965	-266.335480	-1170.718872
4098.490441	334.015198	-289.246063	-1168.439453
4098.493777	321.157227	-311.864410	-1164.991211
4098.497109	306.838104	-333.430756	-1160.549316
4098.500451	292.752777	-354.938629	-1154.997070
4098.505087	263.062531	-394.915253	-1137.112793
4098.507972	248.275848	-414.026886	-1125.715942
4098.511307	234.015198	-432.495605	-1113.617798
4098.514648	219.812958	-449.386322	-1099.824585
4098.517973	204.675629	-466.160156	-1085.271729
4098.520888	190.882523	-483.226196	-1069.024048
4098.524222	175.628296	-497.369965	-1052.074829
4098.527574	161.659851	-509.994171	-1033.196899
4098.530865	147.866745	-522.326111	-1013.793091
4098.534200	134.132080	-532.437195	-993.629456
4098.537106	120.046761	-543.015747	-973.348877
4098.540442	107.013443	-552.016357	-953.477478
4098.543775	93.746346	-560.198730	-932.261841
4098.547132	81.005257	-567.504395	-910.987732
4098.550438	69.725304	-573.465820	-888.778503
4098.553775	57.568676	-578.959656	-867.095276
4098.557104	47.282291	-583.576843	-844.769104
4098.560432	36.002338	-587.375793	-823.728821
4098.563774	26.066628	-590.064270	-801.636475
4098.567104	16.656927	-591.934509	-780.537720
4098.570433	7.305669	-593.395691	-759.497375
4098.573769	-2.630041	-594.798401	-738.457031
4098.577104	-9.585038	-595.265930	-718.877869
4098.580436	-17.825832	-594.739929	-698.363525
4098.583762	-24.722383	-594.447693	-678.842773
4098.587171	-31.502045	-592.928101	-659.146667
4098.590471	-38.106369	-591.759216	-639.801270
4098.593768	-43.717125	-590.239624	-620.923401
4098.597108	-49.444767	-587.901855	-602.162476
4098.600431	-54.646408	-585.037964	-583.635254
4098.603767	-59.964931	-582.466431	-566.043213
4098.607096	-63.997662	-579.661011	-547.632996
4098.610433	-68.030396	-575.920532	-529.982483
4098.613760	-72.355347	-571.887756	-513.325562
4098.618393	-80.187019	-563.822327	-478.842773
4098.621304	-82.817062	-560.257141	-462.302734
4098.624637	-85.973114	-556.107544	-445.762726
4098.628015	-88.720047	-551.081238	-430.099335
4098.631363	-92.051437	-546.347168	-414.962006
4098.634223	-94.272354	-541.496155	-398.655762
4098.637520	-96.668610	-535.593201	-384.278198
4098.640857	-99.006424	-531.560486	-369.725311
4098.644192	-100.409111	-525.540649	-355.055511
4098.647097	-102.863823	-519.929871	-341.145538
4098.650428	-104.617180	-515.137329	-327.819977
4098.653757	-106.253647	-509.117462	-314.377533
4098.657092	-107.656334	-503.740509	-301.285797
4098.660428	-108.825241	-498.305084	-288.836945
4098.663757	-110.870834	-492.285217	-277.732330
4098.667099	-111.163071	-486.499115	-266.861481
4098.670426	-112.390411	-481.239044	-255.990646
4098.673758	-114.202225	-474.517822	-244.360016
4098.677102	-114.845123	-469.433075	-234.132080
4098.680426	-115.663353	-463.296326	-225.131516
4098.683759	-116.832260	-457.568695	-216.247803
4098.687110	-117.358269	-452.425476	-207.188766
4098.690422	-118.001160	-446.873199	-199.707764
4098.693753	-119.286964	-441.496185	-191.876099
4098.697089	-120.689651	-436.586823	-183.693741
4098.700423	-120.864990	-431.677399	-176.680298
4098.703753	-121.332550	-426.475769	-170.835770
4098.707114	-121.917007	-421.741669	-163.179428
4098.710419	-122.033897	-416.773804	-156.867325
4098.713753	-122.384575	-412.098175	-151.373474
4098.717091	-122.618355	-407.422546	-145.587372
4098.720428	-122.618355	-402.980713	-140.677963
4098.723752	-123.436584	-398.831085	-135.417877
4098.728488	-122.852135	-391.291656	-125.715958
4098.731308	-123.319695	-387.083588	-121.858559
4098.734674	-123.670364	-382.875519	-117.358269
4098.738043	-123.144363	-379.661011	-112.916420
4098.741276	-123.144363	-375.803619	-109.175919
4098.744180	-123.085915	-371.712433	-104.850960
4098.747509	-122.092346	-368.381073	-100.935127
4098.750864	-122.443024	-364.757446	-97.837517
4098.754173	-121.566330	-361.250732	-93.980125
4098.757510	-121.157219	-357.334900	-89.888954
4098.760420	-121.624779	-353.652832	-86.090004
4098.763753	-120.923439	-349.912323	-83.109299
4098.767081	-119.696083	-347.574524	-80.070129
4098.770412	-118.059608	-344.301575	-76.797195
4098.773749	-118.994736	-340.093506	-73.232033
4098.777084	-118.059608	-337.989471	-70.543541
4098.780433	-117.884277	-334.891876	-67.855057
4098.783748	-117.475166	-331.502045	-64.582115
4098.787076	-117.475166	-328.404449	-61.893631
4098.790411	-116.656921	-325.482178	-58.854473
4098.793763	-116.130913	-322.676788	-55.406197
4098.797076	-116.481590	-319.403870	-53.477497
4098.800415	-116.540039	-316.715363	-50.789009
4098.803747	-116.072479	-314.260681	-47.925190
4098.807080	-115.546463	-310.929260	-45.353596
4098.810411	-115.721802	-308.825256	-43.249561
4098.813750	-115.604912	-306.078308	-40.561073
4098.817078	-115.312683	-303.915833	-39.099941
4098.820412	-115.078903	-301.285797	-37.697254
4098.823765	-115.020454	-299.123322	-36.119228
4098.827080	-114.728226	-296.785492	-33.898308
4098.830408	-114.903572	-295.090576	-32.203392
4098.833746	-115.488014	-292.986572	-29.865574
4098.838429	-115.721802	-289.421387	-27.761543
4098.841397	-115.429565	-287.726471	-26.475746
4098.844648	-115.838692	-286.382233	-25.540621
4098.847940	-115.780243	-284.395111	-23.845703
4098.851250	-115.838692	-283.109283	-23.495031
4098.854169	-116.014030	-282.583282	-23.202805
4098.857501	-116.247810	-280.771484	-22.559906
4098.860830	-115.838692	-279.894806	-21.624781
4098.864168	-116.423141	-278.784332	-21.040327
4098.867534	-116.832260	-278.258331	-20.280537
4098.870406	-116.656921	-277.381653	-20.631210
4098.873735	-117.592049	-276.271179	-19.520748
4098.877084	-117.592049	-275.978973	-19.403856
4098.880413	-118.176506	-274.985382	-19.462303
4098.883738	-117.767380	-274.985382	-19.286966
4098.887075	-117.475166	-273.582703	-18.293396
4098.890407	-118.118057	-273.407349	-18.936295
4098.893735	-118.351837	-273.173584	-18.234951
4098.897074	-118.351837	-272.004669	-17.533606
4098.900407	-119.286964	-272.355347	-17.708942
4098.903734	-118.994736	-271.011108	-17.884277
4098.907068	-118.994736	-270.601990	-16.949154
4098.910422	-119.403862	-270.426666	-16.130919
4098.913737	-119.403862	-270.017517	-16.481590
4098.917071	-119.812981	-269.959106	-16.832262
4098.920401	-120.222092	-269.257751	-16.540035
4098.923734	-120.397423	-268.731750	-15.955583
4098.927064	-120.280540	-268.907074	-14.669784
4098.930394	-120.923439	-268.381073	-14.962010
4098.933732	-121.274117	-268.322601	-15.078900
4098.937064	-121.507896	-268.088837	-15.020455
4098.940399	-122.150787	-267.971954	-14.494448
4098.943726	-122.150787	-267.913513	-14.611338
4098.947060	-123.027466	-267.679718	-14.260666
4098.951264	-123.436584	-267.971954	-14.436002
4098.954611	-123.670364	-267.621277	-14.786674
4098.957916	-125.306831	-267.971954	-14.494448
4098.961261	-125.482178	-267.971954	-14.494448
4098.964599	-125.774399	-267.971954	-14.786674
4098.967495	-126.767967	-268.205750	-15.488018
4098.970863	-127.410873	-268.731750	-15.663354
4098.974180	-128.112213	-269.257751	-15.546463
4098.977514	-129.339569	-269.725311	-16.656927
4098.980395	-130.157806	-270.251312	-17.066044
4098.983732	-130.333130	-270.660431	-17.708942
4098.987061	-131.034485	-271.186462	-17.358271
4098.990392	-132.554062	-272.881378	-19.520748
4098.993731	-133.430740	-273.524261	-20.163647
4098.997088	-134.541199	-275.219177	-21.800117
4099.000396	-135.184097	-275.745178	-22.326126
4099.003727	-136.528351	-277.323212	-23.611923
4099.007060	-137.814148	-277.849213	-25.599066
4099.010408	-139.099945	-279.427246	-27.703098
4099.013726	-140.561081	-281.355927	-28.404442
4099.017053	-141.554642	-282.466400	-30.917591
4099.020391	-142.022202	-283.752197	-31.969610
4099.023720	-143.191116	-285.447083	-33.372299
4099.027060	-144.535370	-287.726471	-34.833431
4099.030395	-145.470490	-289.246063	-36.528347
4099.033726	-146.814728	-290.648743	-38.924606
4099.037059	-148.158966	-291.817627	-40.093510
4099.040410	-149.503220	-294.623016	-42.080654
4099.043723	-150.555237	-296.142609	-43.775570
4099.047054	-151.782578	-297.545288	-45.996494
4099.050411	-153.302155	-299.707764	-47.632961
4099.053734	-154.237289	-301.285797	-49.152542
4099.057051	-155.289307	-303.740509	-52.425480
4099.061675	-157.977798	-307.422577	-56.282879
4099.064602	-159.614258	-309.175934	-58.270020
4099.067923	-160.958511	-311.396851	-60.841614
4099.071258	-162.594971	-313.617767	-63.062538
4099.074684	-164.289886	-315.546478	-65.225014
4099.077516	-165.926361	-317.299805	-67.036819
4099.080832	-167.621277	-319.403870	-70.601990
4099.084177	-168.965515	-321.507874	-72.822914
4099.087477	-170.718872	-322.852142	-75.043831
4099.090809	-173.056702	-324.956146	-77.440094
4099.093715	-174.576263	-328.053772	-79.836349
4099.097051	-176.212738	-330.157806	-83.869080
4099.100386	-178.375214	-332.495605	-85.680893
4099.103719	-180.479248	-335.300995	-89.888954
4099.107052	-182.524841	-337.405029	-92.928108
4099.110380	-184.687317	-340.853302	-96.551720
4099.113711	-187.200470	-342.665100	-100.058449
4099.117042	-189.129166	-345.528931	-104.091179
4099.120383	-191.466980	-348.568085	-108.591461
4099.123713	-194.155472	-351.315033	-112.857971
4099.127050	-196.610168	-354.471069	-117.241379
4099.130376	-198.831100	-357.159576	-121.566330
4099.133713	-201.753357	-361.016937	-127.060196
4099.137048	-204.558731	-364.348328	-131.911163
4099.140402	-207.130341	-367.679718	-137.638809
4099.143721	-210.111053	-370.543549	-144.243134
4099.147041	-213.325546	-374.050262	-148.801880
4099.150377	-216.189362	-378.082977	-155.347748
4099.153710	-218.994736	-381.706604	-162.419647
4099.157045	-221.975449	-385.797791	-168.673294
4099.160376	-224.605484	-388.836945	-175.160736
4099.163709	-228.112213	-393.337219	-182.583282
4099.167039	-231.092926	-397.369965	-190.064285
4099.170405	-233.430740	-401.052002	-196.201050
4099.174559	-239.450623	-409.117462	-212.331970
4099.177906	-242.489761	-413.033295	-220.748093
4099.181243	-245.762711	-416.598450	-228.229111
4099.184664	-248.977203	-420.806549	-237.054352
4099.187986	-252.191711	-424.839264	-246.171829
4099.190804	-255.698425	-428.112213	-254.763290
4099.194130	-259.146698	-432.670959	-263.296326
4099.197464	-262.244293	-435.943878	-271.829346
4099.200799	-265.341888	-439.625916	-281.063690
4099.203706	-268.848633	-443.424896	-290.414948
4099.207036	-271.887787	-446.931610	-300.000000
4099.210374	-275.862061	-451.081238	-310.286377
4099.213704	-279.310333	-454.938660	-320.572754
4099.217033	-282.641724	-457.860901	-330.742249
4099.220374	-286.557587	-461.192261	-341.379303
4099.223707	-290.239624	-464.874359	-352.074829
4099.227040	-294.155457	-467.913483	-362.770325
4099.230372	-298.012848	-470.894196	-374.693146
4099.233704	-302.396240	-474.751617	-385.447083
4099.237037	-306.195221	-478.316772	-397.837524
4099.240392	-309.935699	-481.472839	-410.461700
4099.243709	-313.559326	-484.395081	-423.202789
4099.247038	-317.767395	-487.609589	-436.236084
4099.250365	-321.274109	-489.830505	-449.386322
4099.253701	-326.066650	-491.817657	-463.822327
4099.257074	-330.625366	-495.265900	-478.082977
4099.260364	-333.781403	-496.610168	-492.928131
4099.263705	-338.223267	-498.538879	-508.123932
4099.267032	-342.139099	-500.292206	-524.663940
4099.270384	-345.704285	-502.220917	-540.385742
4099.273695	-349.795441	-503.156036	-556.691956
4099.277033	-353.477509	-504.383423	-573.407349
4099.280367	-357.451782	-505.260071	-590.765625
4099.285053	-364.815918	-506.779663	-626.241943
4099.287978	-368.030396	-506.662750	-644.418457
4099.291329	-370.952667	-506.312073	-663.296326
4099.294630	-374.342499	-505.902954	-681.706604
4099.297882	-376.914093	-505.260071	-701.110474
4099.300826	-379.602570	-503.974304	-720.105225
4099.304123	-381.531250	-502.337830	-738.632385
4099.307456	-383.927551	-500.409119	-758.094666
4099.310781	-385.856232	-498.421967	-778.433655
4099.314115	-388.077148	-495.149048	-797.779053
4099.317025	-389.713623	-491.934540	-817.299866
4099.320359	-390.356506	-488.194031	-836.703674
4099.323691	-391.350067	-484.102875	-855.698364
4099.327024	-392.518982	-479.602570	-875.569824
4099.330363	-393.044983	-473.115173	-893.570984
4099.333696	-393.921692	-468.322601	-912.507324
4099.337024	-393.629456	-462.945648	-930.800720
4099.340361	-393.746338	-456.867310	-949.035645
4099.343724	-393.804779	-449.795441	-964.932800
4099.347026	-393.395691	-442.665100	-982.407959
4099.350354	-393.278778	-434.658112	-999.298645
4099.353690	-391.759216	-426.826416	-1015.955566
4099.357047	-391.291656	-417.650513	-1032.437134
4099.360355	-390.122711	-408.299255	-1048.568115
4099.363692	-388.836945	-398.889526	-1063.354736
4099.367021	-387.142029	-389.538300	-1078.901245
4099.370359	-385.914673	-378.199890	-1093.395752
4099.373686	-382.641724	-367.212158	-1107.247314
4099.377025	-381.239044	-355.289307	-1120.163574
4099.380356	-378.024567	-343.074219	-1133.723022
4099.383691	-375.511414	-330.625366	-1146.522461
4099.387014	-372.238434	-317.299805	-1159.438843
4099.390352	-368.790161	-302.922272	-1169.608398
4099.393686	-364.582123	-288.778503	-1180.303955
4099.397934	-355.756866	-259.848053	-1200.292236
4099.401306	-351.198120	-243.717117	-1209.468140
4099.404531	-346.171844	-228.229111	-1216.949219
4099.407871	-339.976624	-211.221497	-1224.897705
4099.411224	-333.956757	-194.330795	-1230.859131
4099.414116	-327.410858	-177.147858	-1237.989502
4099.417441	-320.280518	-159.964935	-1243.775513
4099.420775	-312.974854	-141.145523	-1247.866699
4099.424132	-305.201630	-123.027466	-1252.250122
4099.427017	-297.253052	-104.967857	-1256.224487
4099.430373	-289.246063	-85.680893	-1257.919312
4099.433697	-281.063690	-67.036819	-1259.263672
4099.437036	-272.355347	-48.042080	-1260.257202
4099.440351	-262.887207	-28.872004	-1260.374023
4099.443692	-253.711273	-10.870836	-1258.620605
4099.447010	-244.535355	9.351256	-1257.218018
4099.450343	-235.417892	27.936878	-1254.704834
4099.453685	-224.780823	46.464054	-1251.490356
4099.457016	-215.137344	65.049675	-1247.457642
4099.460345	-205.902985	83.284630	-1243.424927
4099.463682	-196.025711	101.227356	-1238.106323
4099.467012	-186.090012	119.170082	-1231.619019
4099.470342	-176.271194	137.112793	-1224.839355
4099.473698	-166.744583	154.061951	-1218.234863
4099.477008	-156.925781	170.835770	-1209.994141
4099.480344	-147.866745	186.908249	-1201.987183
4099.483673	-138.983047	203.798935	-1193.512573
4099.487010	-129.514908	219.520752	-1183.518433
4099.490344	-120.338989	235.008759	-1174.459351
4099.493678	-111.221504	249.210983	-1164.932861
4099.497012	-102.746925	263.588562	-1153.828125
4099.500344	-94.330803	277.673859	-1143.424927
4099.503670	-86.031563	291.993011	-1131.969604
4099.507955	-69.374634	319.053192	-1108.474487
4099.511235	-61.718292	331.560486	-1096.902344
4099.514522	-54.003506	343.191132	-1084.219727
4099.517873	-46.171829	355.639984	-1071.712524
4099.521215	-38.164814	367.855042	-1058.094727
4099.524093	-31.209818	378.550568	-1045.470581
4099.527448	-23.962595	389.246063	-1032.203369
4099.530791	-16.949154	399.532440	-1018.059631
4099.534127	-9.760374	409.935699	-1004.617187
4099.537011	-2.688486	420.338959	-990.882507
4099.540359	5.143191	429.748688	-976.154297
4099.543677	11.981297	437.814148	-962.127380
4099.547000	17.767387	446.697845	-948.451233
4099.550346	25.599066	454.237274	-933.839905
4099.553698	32.261837	462.361206	-919.812988
4099.557007	38.807713	469.491516	-904.850952
4099.560341	44.827587	475.862061	-890.239624
4099.563666	51.315022	484.278198	-875.394531
4099.567005	57.159554	489.538300	-861.835205
4099.570333	63.237869	494.915253	-847.632996
4099.573663	69.549973	500.116882	-831.911194
4099.577007	74.810051	505.026306	-817.358276
4099.580338	80.303917	509.585052	-802.980713
4099.583667	85.856224	513.325562	-788.252502
4099.586999	91.174751	516.189392	-774.225586
4099.590334	95.908829	519.579163	-760.198730
4099.593662	100.642899	522.209229	-746.054932
4099.597036	105.493866	524.254822	-732.787842
4099.600334	110.286377	526.534180	-719.871399
4099.603668	114.085327	528.813538	-707.247192
4099.607001	117.942726	530.099365	-694.564575
4099.610334	121.975456	530.742249	-681.531311
4099.613663	125.540611	531.385132	-669.842224
4099.618267	132.028061	533.430725	-645.645813
4099.621217	135.125656	533.722961	-634.716553
4099.624516	137.872589	533.781433	-621.683228
4099.627871	140.151947	533.138489	-611.630615
4099.631194	142.489761	533.313843	-599.766235
4099.634105	144.418472	532.787842	-588.603149
4099.637449	146.347168	531.618958	-578.550598
4099.640851	148.860306	530.566956	-568.030396
4099.644086	150.613678	530.157776	-557.860901
4099.647423	152.367035	529.573364	-547.574524
4099.650330	154.178848	528.346008	-537.229675
4099.653662	155.523087	526.826416	-527.293945
4099.656991	156.633545	525.423706	-517.767395
4099.660332	157.977798	524.196411	-508.357666
4099.663657	159.029800	522.384521	-499.064880
4099.666992	160.257156	520.572754	-490.239624
4099.670325	161.659851	518.702515	-481.998840
4099.673659	162.653427	517.299866	-471.303314
4099.676989	163.413208	515.078857	-462.653412
4099.680326	164.640564	513.150208	-453.652802
4099.683675	165.575684	511.163055	-444.886017
4099.686994	166.744583	508.591461	-436.762146
4099.690328	167.445938	506.487427	-428.579773
4099.693652	168.556396	503.857361	-420.631226
4099.696984	169.433075	501.519592	-411.513763
4099.700388	169.491531	498.947998	-403.623627
4099.703658	170.543533	496.434845	-396.025696
4099.706991	171.946228	493.687927	-388.369385
4099.710327	172.413788	490.824066	-379.836334
4099.713662	173.232025	488.135590	-372.764465
4099.716984	174.225601	485.739319	-365.575684
4099.720327	174.634720	483.226196	-359.088257
4099.723656	175.219162	479.894775	-352.016357
4099.727018	176.329636	477.381653	-330.274689
4099.731165	176.563416	471.537109	-332.437195
4099.734532	177.556976	468.497955	-326.125061
4099.737877	177.790756	466.335480	-319.754517
4099.741239	178.316772	463.120972	-313.617767
4099.744136	177.849213	460.783142	-309.409729
4099.747430	178.784332	458.386902	-303.857391
4099.750778	178.433670	455.172394	-297.954407
4099.754065	178.725891	452.717682	-293.454132
4099.757417	178.959671	450.204559	-288.194031
4099.760316	179.602570	447.165405	-283.401520
