time (s)	magX	magY	magZ
4228.706272	-15.546463	426.651093	-383.050842
4228.709630	-16.832262	426.592651	-392.402100
4228.712929	-19.111629	427.060181	-403.331360
4228.716266	-20.806547	427.819977	-413.208618
4228.719598	-23.202805	428.579773	-424.897705
4228.722935	-24.722383	429.047333	-435.008759
4228.726263	-27.001753	429.105804	-445.587402
4228.729599	-29.631794	427.936890	-455.230865
4228.732935	-31.735825	427.527771	-466.978363
4228.736261	-34.132088	427.001770	-477.673859
4228.739598	-36.528347	425.599060	-489.713623
4228.742935	-39.333721	425.014587	-501.168915
4228.746258	-41.671539	422.618347	-513.150208
4228.749592	-44.827587	421.683228	-522.793701
4228.752942	-47.925190	418.351837	-535.242554
4228.756260	-50.964348	416.364716	-547.983643
4228.759589	-54.237289	412.565765	-560.081787
4228.762928	-57.393337	408.649933	-572.589111
4228.766265	-61.192287	405.026306	-585.739319
4228.769597	-63.939220	401.110474	-597.837524
4228.772931	-67.855057	395.791931	-611.747498
4228.776262	-71.887787	391.350067	-626.008179
4228.780882	-78.609001	378.901215	-653.243713
4228.783806	-82.291061	371.537109	-666.393921
4228.787126	-85.388657	364.465240	-680.303894
4228.790512	-89.012268	355.815308	-694.389221
4228.793859	-92.986557	347.165405	-708.474609
4228.796728	-96.084160	337.697235	-722.793701
4228.800098	-99.941551	327.761566	-736.937500
4228.803360	-103.389832	317.241394	-750.730591
4228.806682	-107.188774	306.370544	-764.465210
4228.810022	-111.163071	294.389252	-777.966125
4228.812920	-114.728226	281.998840	-791.642334
4228.816255	-117.767380	268.673309	-805.493835
4228.819591	-122.209236	255.990646	-816.189392
4228.822919	-125.715958	242.255997	-828.930481
4228.826257	-129.456467	228.521317	-839.450623
4228.829591	-132.963181	214.143784	-850.321472
4228.832941	-137.054367	199.006424	-861.309143
4228.836254	-140.502625	184.102875	-871.011047
4228.839584	-144.184692	169.959091	-879.368774
4228.842923	-147.866745	154.704865	-888.077148
4228.846254	-152.250153	139.801285	-896.259521
4228.849584	-154.997070	124.547050	-901.928711
4228.852914	-159.088257	108.825241	-907.071899
4228.856253	-162.536530	94.155464	-914.085266
4228.859585	-165.809464	80.070129	-918.702515
4228.862917	-169.433075	65.166565	-922.384521
4228.866255	-173.290482	50.321449	-926.358887
4228.869578	-176.095856	36.236118	-929.573364
4228.872919	-178.959671	21.683226	-932.144897
4228.876292	-182.700180	7.364114	-933.898254
4228.879583	-185.914673	-7.130333	-934.891907
4228.882923	-189.012283	-21.215664	-935.768494
4228.886250	-191.817657	-34.365868	-935.184082
4228.890870	-197.779068	-61.718292	-935.008789
4228.893781	-200.350662	-75.043831	-934.482788
4228.897177	-203.448273	-88.836937	-930.742249
4228.900523	-205.669189	-101.928696	-927.703125
4228.903847	-208.883698	-114.611343	-925.014587
4228.906675	-210.578613	-127.469315	-921.566284
4228.910005	-213.325546	-140.385742	-916.540039
4228.913354	-216.072464	-152.659256	-911.805908
4228.916676	-218.644073	-164.932785	-905.026367
4228.919620	-220.689651	-176.212738	-900.409119
4228.922909	-222.735245	-187.258911	-893.921631
4228.926249	-225.423721	-198.597305	-888.194092
4228.929576	-226.767975	-209.000580	-880.771423
4228.932916	-229.573349	-218.936295	-873.641113
4228.936240	-230.625366	-228.813553	-866.393921
4228.939580	-233.664520	-238.281708	-856.867310
4228.942906	-234.891861	-247.457626	-848.918701
4228.946238	-236.411453	-256.049072	-838.515503
4228.949580	-237.872604	-264.348328	-830.040955
4228.952908	-239.216827	-272.296906	-821.566284
4228.956242	-240.093521	-279.602570	-812.858032
4228.959610	-241.496201	-286.557587	-802.045654
4228.962945	-242.665100	-294.038574	-792.752808
4228.966247	-243.366455	-300.584473	-782.641724
4228.969586	-244.886047	-306.545868	-772.647583
4228.972909	-245.762711	-312.098206	-763.471680
4228.976234	-246.464066	-317.299805	-753.711243
4228.979575	-246.873169	-321.917023	-744.476868
4228.982912	-247.691422	-327.586212	-735.242554
4228.986239	-248.334320	-331.268250	-725.482178
4228.989573	-248.684982	-335.710114	-716.481567
4228.992907	-248.743408	-339.158386	-706.721191
4228.996241	-249.386337	-342.665100	-697.369934
4229.000913	-250.555237	-348.801880	-677.557007
4229.003772	-250.263000	-350.964355	-669.257751
4229.007203	-250.379898	-354.120392	-659.731140
4229.010499	-250.672119	-355.873749	-650.613708
4229.013763	-250.613663	-357.977783	-641.554626
4229.016665	-250.789017	-360.198700	-632.086487
4229.019993	-250.555237	-361.952057	-623.904114
4229.023322	-250.613663	-363.354767	-614.845154
4229.026663	-250.672119	-364.465240	-606.487427
4229.029987	-250.730560	-366.218597	-598.188232
4229.032900	-250.555237	-367.796600	-589.070679
4229.036233	-250.613663	-367.913513	-580.245422
4229.039567	-250.438339	-369.140869	-572.355347
4229.042908	-250.263000	-370.251312	-564.932800
4229.046229	-249.444763	-370.718872	-555.873779
4229.049575	-249.912338	-371.478668	-548.743408
4229.052899	-249.970764	-371.186462	-542.080627
4229.056251	-249.094101	-371.770874	-534.190491
4229.059568	-248.801880	-372.238434	-527.177124
4229.062897	-248.100525	-372.705994	-520.338989
4229.066223	-247.632950	-372.705994	-511.922852
4229.069565	-246.756287	-372.705994	-504.792511
4229.072899	-246.405609	-372.647583	-498.188202
4229.076230	-246.931625	-372.881378	-491.583862
4229.079564	-245.587372	-372.355347	-485.914673
4229.082893	-245.645828	-371.478668	-478.433655
4229.086233	-245.587372	-372.063110	-470.660461
4229.089560	-244.652252	-371.946228	-464.699036
4229.092913	-244.184692	-371.946228	-458.270020
4229.096232	-243.834015	-371.887787	-452.776154
4229.099559	-243.132660	-371.420227	-446.697845
4229.102892	-242.314438	-371.186462	-440.736389
4229.106229	-241.320877	-369.959106	-435.651672
4229.110503	-240.268845	-369.725311	-425.014587
4229.113821	-240.210419	-369.433075	-420.046753
4229.117112	-239.333725	-368.907074	-414.377533
4229.120400	-237.872604	-368.731750	-409.935699
4229.123740	-236.879013	-368.614838	-405.786072
4229.126641	-235.768555	-367.738190	-401.227325
4229.129984	-234.599640	-368.673309	-396.493256
4229.133313	-234.190536	-368.322601	-391.583862
4229.136690	-233.255417	-367.387482	-388.252472
4229.140005	-231.209824	-366.861481	-383.459961
4229.142886	-230.508469	-366.803040	-379.135010
4229.146224	-229.748672	-365.400360	-375.043854
4229.149598	-227.995331	-365.692566	-370.601990
4229.152890	-227.293991	-365.225006	-368.147278
4229.156228	-226.066635	-365.049683	-365.517242
4229.159557	-224.547058	-364.056122	-361.484497
4229.162893	-223.962585	-364.231445	-357.101105
4229.166249	-222.559906	-363.530090	-354.061951
4229.169547	-221.975449	-363.646973	-351.081238
4229.172891	-220.864990	-363.822327	-347.749847
4229.176225	-219.345398	-362.478088	-345.470490
4229.179549	-218.293411	-362.068970	-342.723572
4229.182890	-216.949158	-362.302765	-339.275299
4229.186221	-216.189362	-361.776733	-337.054352
4229.189551	-215.838699	-361.016937	-334.541199
4229.192887	-214.845108	-360.315613	-331.852722
4229.196214	-213.150208	-360.374054	-329.105774
4229.199555	-212.273529	-359.848053	-325.715942
4229.202886	-211.455292	-358.971344	-322.092346
4229.206210	-210.929276	-357.685577	-320.046753
4229.209560	-209.117477	-357.568665	-317.416718
4229.212889	-207.948563	-356.341309	-316.014038
4229.216217	-207.948563	-357.101105	-312.507294
4229.220887	-205.493851	-355.990662	-307.247223
4229.223807	-205.201630	-355.113953	-304.850952
4229.227065	-204.208069	-355.230865	-301.519592
4229.230423	-203.682068	-354.295715	-300.000000
4229.233752	-202.630035	-353.711273	-296.843964
4229.236637	-201.461121	-354.003510	-295.149048
4229.240010	-201.344254	-353.419037	-292.577423
4229.243338	-200.292236	-353.068390	-290.999420
4229.246662	-198.772644	-352.600800	-289.187592
4229.249964	-198.947983	-352.016357	-287.258911
4229.252881	-198.305084	-352.659271	-285.271759
4229.256206	-197.077728	-352.483917	-284.219757
4229.259539	-196.317947	-351.724152	-283.459961
4229.262876	-195.616608	-351.899475	-282.349518
4229.266212	-195.032150	-351.957916	-281.706604
4229.269545	-194.389252	-351.899475	-281.940399
4229.272880	-193.337219	-351.548798	-281.005249
4229.276213	-192.518997	-351.724152	-281.706604
4229.279538	-191.700760	-352.308594	-280.946808
4229.282901	-191.350098	-352.133240	-281.122162
4229.286212	-190.531845	-351.841034	-281.063690
4229.289541	-189.479843	-352.016357	-281.531250
4229.292871	-188.077148	-352.367035	-282.057281
4229.296204	-187.609589	-352.834595	-282.933960
4229.299538	-186.674469	-352.834595	-282.875519
4229.302875	-186.499115	-352.834595	-284.219757
4229.306211	-185.271774	-353.126831	-284.511963
4229.309540	-184.219757	-353.126831	-284.336639
4229.312905	-182.933960	-354.178833	-284.570435
4229.316212	-182.407959	-354.471069	-284.804199
4229.319535	-181.589706	-353.886597	-284.804199
4229.322876	-180.420807	-353.652832	-284.161316
4229.326226	-178.901230	-354.704865	-283.927551
4229.330829	-177.615433	-354.178833	-281.765045
4229.333727	-176.621857	-354.237305	-281.881958
4229.337075	-174.985382	-353.769745	-280.420807
4229.340435	-174.576263	-354.120392	-279.427246
4229.343813	-173.115128	-353.652832	-278.550568
4229.346645	-172.296906	-352.834595	-276.271179
4229.350007	-171.595566	-353.185272	-274.225586
4229.353296	-170.660431	-353.009949	-273.290466
4229.356626	-169.783752	-352.074829	-270.952667
4229.359968	-168.790192	-352.425476	-269.666870
4229.362870	-168.088837	-352.191711	-267.095245
4229.366201	-167.445938	-352.074829	-265.984802
4229.369550	-166.277023	-351.081238	-263.880768
4229.372870	-164.874344	-351.081238	-261.893616
4229.376198	-164.114563	-350.847473	-260.841614
4229.379532	-163.062531	-350.146118	-258.737579
4229.382863	-162.185852	-350.321472	-257.568665
4229.386193	-161.016953	-349.678528	-255.756882
4229.389538	-159.672699	-349.737000	-255.406189
4229.392863	-158.796021	-349.210968	-253.769730
4229.396195	-157.334885	-349.386322	-253.360611
4229.399529	-156.165985	-349.152527	-252.191711
4229.402862	-155.464630	-348.860321	-250.438339
4229.406213	-153.652832	-349.210968	-250.263000
4229.409533	-152.659256	-348.918762	-249.678543
4229.412866	-151.139694	-348.509644	-249.327881
4229.416200	-149.853882	-348.684967	-248.275848
4229.419527	-148.860306	-348.801880	-249.327881
4229.422860	-147.223846	-349.503204	-249.327881
4229.426194	-146.171829	-349.094116	-248.918777
4229.429530	-144.710693	-348.977203	-247.516083
4229.432860	-143.483337	-348.801880	-247.223846
4229.436193	-141.496201	-349.269440	-247.866745
4229.440872	-138.690826	-349.094116	-246.756287
4229.443769	-137.229691	-348.860321	-246.814728
4229.447140	-135.885437	-348.568085	-245.353607
4229.450451	-134.658096	-348.568085	-245.295135
4229.453808	-132.612503	-349.094116	-245.295135
4229.456649	-131.560486	-348.334320	-243.892456
4229.459955	-130.216248	-348.100525	-243.600220
4229.463278	-128.930450	-348.568085	-242.372864
4229.466612	-127.410873	-348.275848	-241.613098
4229.469538	-126.125076	-347.516083	-240.794846
4229.472862	-125.131500	-347.574524	-239.859726
4229.476189	-123.728813	-347.048523	-239.333725
4229.479521	-122.443024	-346.990051	-237.463470
4229.482856	-121.332550	-347.048523	-236.995911
4229.486186	-120.572769	-346.347168	-235.534760
4229.489518	-118.234955	-345.879608	-233.839874
4229.492850	-117.358269	-345.236694	-232.670944
4229.496189	-116.656921	-344.944489	-231.326706
4229.499525	-115.078903	-345.178253	-229.807144
4229.502850	-113.851547	-343.717133	-227.644653
4229.506187	-112.682640	-343.424896	-227.293991
4229.509530	-111.572182	-343.191132	-226.066635
4229.512855	-110.286377	-342.431335	-223.495026
4229.516182	-109.292816	-341.963776	-222.501465
4229.519515	-107.890114	-341.203979	-220.338989
4229.522854	-106.662773	-341.262421	-219.111633
4229.526184	-105.669197	-340.327301	-218.527176
4229.529523	-104.324959	-340.327301	-216.247803
4229.532852	-103.156052	-339.216827	-214.845108
4229.536216	-101.694916	-339.450623	-213.968445
4229.539520	-100.233780	-338.573944	-212.857986
4229.542853	-98.655754	-337.755707	-212.331970
4229.546182	-98.129745	-337.580383	-211.163071
4229.550386	-95.850380	-337.580383	-208.474564
4229.553721	-94.973701	-336.586792	-207.656342
4229.557109	-93.746346	-336.528351	-207.539444
4229.560456	-92.518997	-335.943878	-205.727646
4229.563352	-91.291641	-334.891876	-206.545883
4229.566608	-89.772064	-334.190521	-204.091171
4229.569935	-89.129166	-333.781403	-204.149628
4229.573292	-88.018707	-333.372314	-203.857391
4229.576606	-87.142021	-333.313843	-202.454712
4229.579509	-86.090004	-332.729401	-201.636475
4229.582848	-85.388657	-332.787842	-200.876694
4229.586192	-85.271767	-332.378723	-199.883102
4229.589512	-84.219757	-332.144958	-199.298660
4229.592851	-83.810638	-332.028046	-197.486847
4229.596179	-82.875511	-330.450043	-196.902390
4229.599505	-82.524841	-329.924011	-195.032150
4229.602845	-81.648163	-329.281128	-194.623032
4229.606174	-81.122147	-329.456451	-193.571014
4229.609513	-80.537697	-328.696686	-192.694336
4229.612843	-80.011688	-328.521332	-191.525421
4229.616230	-80.245468	-327.936890	-189.888947
4229.619515	-79.953239	-327.352417	-188.369370
4229.622839	-79.310349	-325.891266	-188.486267
4229.626173	-79.251900	-325.832855	-186.908249
4229.629536	-78.784332	-326.066650	-185.388657
4229.632843	-78.667442	-324.430145	-183.869095
4229.636169	-77.907654	-323.670349	-183.459961
4229.639506	-77.966103	-323.611938	-181.765045
4229.642849	-77.440094	-322.267670	-180.362350
4229.646175	-77.206314	-322.033905	-178.492111
4229.649507	-76.212738	-321.624786	-177.907654
4229.652844	-76.271187	-320.222107	-176.388077
4229.657514	-75.745178	-319.111633	-174.284042
4229.660382	-75.745178	-318.760956	-173.524261
4229.663794	-75.160721	-318.819397	-172.004669
4229.667101	-74.576271	-317.884277	-170.952652
4229.670355	-74.459381	-317.650482	-169.959091
4229.673295	-74.167160	-316.423157	-170.017532
4229.676596	-73.699593	-316.072449	-168.907074
4229.679926	-73.641144	-315.838684	-167.095261
4229.683257	-73.524254	-314.903564	-166.978378
4229.686173	-72.764465	-314.845123	-166.101700
4229.689505	-72.121567	-314.377533	-165.283463
4229.692837	-72.296898	-313.968445	-164.991241
4229.696170	-72.238457	-313.559326	-164.114563
4229.699502	-71.712448	-312.974854	-163.237869
4229.702838	-71.303329	-312.507294	-162.828751
4229.706161	-71.303329	-311.981293	-161.835175
4229.709500	-71.303329	-311.338409	-161.133835
4229.712835	-70.952660	-311.396851	-160.023376
4229.716167	-70.952660	-310.520172	-159.614258
4229.719546	-71.186440	-310.520172	-158.679138
4229.722833	-71.011101	-310.403290	-158.153122
4229.726162	-70.485100	-310.344849	-157.334885
4229.729498	-70.718880	-309.643494	-156.984222
4229.732830	-71.478668	-308.766785	-155.873764
4229.736165	-70.894211	-309.000580	-155.289307
4229.739503	-70.777321	-308.182373	-154.178848
4229.742830	-70.835770	-307.656342	-154.003494
4229.746161	-70.017532	-307.714783	-153.477509
4229.749495	-70.894211	-306.779663	-152.191696
4229.752865	-70.660431	-306.078308	-151.607254
4229.756163	-70.601990	-306.253662	-151.490356
4229.759491	-70.485100	-305.493866	-150.496780
4229.762824	-70.251312	-305.143188	-150.204559
4229.767023	-70.543541	-304.500305	-148.334320
4229.770454	-70.660431	-304.091156	-146.697845
4229.773757	-70.952660	-303.331360	-146.405609
4229.777056	-71.011101	-302.980713	-145.236710
4229.779918	-70.777321	-302.688477	-144.360016
4229.783252	-70.835770	-301.870239	-143.775574
4229.786580	-70.660431	-301.285797	-143.541794
4229.789912	-71.011101	-300.701355	-142.022202
4229.793255	-71.127991	-299.590881	-142.723541
4229.796156	-70.952660	-299.649323	-140.736420
4229.799495	-71.478668	-298.831085	-139.801285
4229.802835	-70.718880	-298.305084	-139.801285
4229.806156	-70.835770	-297.720612	-138.398605
4229.809489	-71.361771	-297.077728	-138.457047
4229.812825	-70.718880	-296.142609	-137.697250
4229.816157	-70.894211	-296.025696	-135.768555
4229.819489	-71.361771	-295.382812	-134.774979
4229.822842	-71.127991	-294.623016	-134.833435
4229.826161	-71.244881	-294.447693	-133.138519
4229.829490	-71.011101	-293.863251	-131.911163
4229.832820	-71.770897	-293.337219	-130.742249
4229.836154	-71.186440	-292.402100	-130.333130
4229.839523	-71.478668	-291.934540	-129.865570
4229.842815	-71.303329	-291.525421	-128.638214
4229.846167	-71.303329	-290.648743	-127.703094
4229.849490	-71.303329	-290.648743	-126.183525
4229.852820	-71.186440	-289.246063	-125.073051
4229.856152	-71.127991	-288.836945	-124.722382
4229.859481	-71.011101	-288.135590	-123.962593
4229.862817	-71.537109	-287.609589	-122.443024
4229.866146	-71.244881	-287.375793	-121.332550
4229.869482	-71.361771	-286.616028	-120.280540
4229.874160	-71.303329	-285.271759	-118.059608
4229.877114	-71.420219	-284.628876	-117.416718
4229.880435	-72.004677	-283.927551	-116.306259
4229.883706	-72.121567	-283.343079	-116.306259
4229.887003	-71.946228	-282.817078	-115.897133
4229.889937	-72.121567	-282.349518	-115.371132
4229.893243	-72.063118	-281.472839	-113.617767
4229.896569	-72.706017	-280.946808	-112.507309
4229.899901	-72.589127	-280.070129	-111.981293
4229.903238	-72.063118	-279.661011	-111.338402
4229.906150	-72.530678	-279.135010	-110.753944
4229.909477	-72.472237	-278.667450	-110.461723
4229.912818	-72.881355	-278.608978	-109.059021
4229.916143	-72.998253	-277.206299	-107.481003
4229.919480	-72.939804	-276.972534	-108.357681
4229.922822	-72.764465	-276.446533	-106.370544
4229.926179	-73.056694	-275.628296	-105.961433
4229.929481	-72.939804	-274.810059	-104.967857
4229.932823	-73.465813	-274.284058	-104.558739
4229.936146	-73.758034	-273.991821	-103.565170
4229.939477	-73.874924	-272.939789	-102.805374
4229.942813	-73.933372	-272.647583	-101.344238
4229.946141	-73.991814	-271.595551	-101.285805
4229.949475	-74.576271	-271.303314	-100.000000
4229.952813	-74.751610	-270.777313	-99.415550
4229.956142	-74.517830	-270.192871	-98.129745
4229.959474	-74.810051	-269.549957	-98.071304
4229.962807	-74.810051	-268.907074	-97.253067
4229.966143	-75.511398	-268.439514	-96.493279
4229.969470	-75.160721	-267.796600	-95.558151
4229.972801	-75.803627	-267.270599	-95.733490
4229.976144	-76.037407	-267.504395	-94.564583
4229.979475	-75.628288	-266.277039	-94.447693
4229.983725	-75.336060	-265.575684	-93.454124
4229.987082	-75.745178	-265.809479	-92.986557
4229.990326	-75.569847	-264.582123	-92.285217
4229.993648	-76.212738	-264.757446	-91.934547
4229.996984	-75.920517	-264.465240	-91.350090
4229.999899	-76.095848	-264.348328	-91.466980
4230.003231	-75.978958	-264.231445	-91.700760
4230.006581	-75.569847	-264.231445	-91.466980
4230.009916	-75.569847	-263.705444	-90.999420
4230.012833	-76.037407	-263.179413	-89.947395
4230.016136	-76.154297	-263.237885	-89.538284
4230.019472	-75.745178	-263.120972	-90.005844
4230.022803	-75.277618	-262.010529	-89.947395
4230.026137	-75.336060	-261.542969	-89.479836
4230.029466	-75.569847	-261.601410	-89.421394
4230.032796	-75.160721	-261.133850	-88.661598
4230.036136	-75.336060	-260.724701	-89.187607
4230.039469	-75.336060	-260.724701	-87.901810
4230.042807	-75.336060	-260.023376	-87.375801
4230.046128	-75.978958	-259.497375	-86.499123
4230.049462	-75.862068	-259.263580	-86.674461
4230.052801	-75.336060	-258.679138	-86.265343
4230.056166	-75.745178	-258.153137	-85.739334
4230.059464	-74.868500	-257.568665	-84.453537
4230.062800	-74.985390	-258.036224	-83.985970
4230.066131	-74.400940	-257.451782	-83.518410
4230.069461	-74.693161	-256.107544	-82.583282
4230.072797	-75.102280	-255.113953	-81.823502
4230.076127	-74.459381	-255.406189	-81.239037
4230.079467	-74.225601	-254.821747	-80.303917
