time (s)	magX	magY	magZ
7039.422996	170.894211	79.485680	-33.313854
7039.426321	169.140854	78.375221	-30.566919
7039.429656	167.445938	78.024551	-27.819988
7039.432989	165.751022	76.563416	-26.066628
7039.436323	163.588547	76.504967	-24.021040
7039.439654	162.302750	75.102280	-22.443016
7039.442984	160.490936	74.284050	-22.209234
7039.446317	159.205139	73.407364	-20.163647
7039.449650	157.101105	72.589127	-18.234951
7039.452979	155.815308	71.887787	-16.189363
7039.456319	153.419052	71.127991	-14.728229
7039.459652	152.133255	70.075974	-13.676212
7039.462981	151.256577	70.251312	-12.799533
7039.466318	149.386322	69.082413	-11.221508
7039.469645	147.691406	68.848625	-9.468147
7039.472978	146.639389	68.088837	-8.299240
7039.476320	145.119812	67.095268	-7.013443
7039.479650	144.243134	67.095268	-5.727644
7039.483911	140.736420	65.283463	-3.565166
7039.487183	139.099945	65.341911	-2.104033
7039.490520	137.931030	64.173004	-1.344243
7039.493816	137.171249	63.822330	-0.058445
7039.497224	135.827011	63.296318	1.110462
7039.500088	134.891876	62.653416	2.863822
7039.503412	133.489197	62.010521	3.506721
7039.506758	132.086502	62.127411	4.208066
7039.510115	130.859146	61.776741	5.201637
7039.512977	129.982468	60.841614	6.019871
7039.516308	128.638214	60.432495	7.714787
7039.519654	127.410873	59.380478	8.766803
7039.522994	126.592636	59.322037	9.818819
7039.526307	125.599060	59.088253	10.111046
7039.529647	124.371704	58.912914	10.929281
7039.532978	123.962593	58.211571	11.864407
7039.536310	122.969017	57.744007	12.857978
7039.539642	121.975456	57.510227	12.974869
7039.542974	121.098770	57.510227	13.617767
7039.546312	121.215668	56.925774	13.851549
7039.549646	119.812981	56.984222	14.669784
7039.552978	118.877853	55.581535	15.020455
7039.556307	118.527176	55.639977	16.247808
7039.559641	117.358269	55.289303	17.182934
7039.562971	117.650497	55.289303	17.767387
7039.566309	117.007599	54.938633	17.708942
7039.569641	116.364693	54.529510	17.708942
7039.572977	116.306259	54.295731	17.299826
7039.576308	115.371132	54.237289	17.767387
7039.579638	114.786674	53.477497	18.118059
7039.583011	114.377556	53.360603	17.767387
7039.586302	114.377556	53.009933	17.942724
7039.589639	113.968445	53.477497	18.234951
7039.594258	113.676216	53.419052	18.059614
7039.597225	113.909996	52.834599	18.351841
7039.600504	113.267097	53.009933	18.527178
7039.603837	113.383987	52.308590	18.819405
7039.607226	112.916420	53.185272	18.234951
7039.610099	112.448860	52.834599	18.702513
7039.613395	112.273529	52.308590	18.410286
7039.616720	112.273529	52.250145	19.286966
7039.620065	112.098190	52.483929	19.462303
7039.623390	111.981293	52.600819	18.760958
7039.626300	111.864410	52.425480	19.637638
7039.629634	111.981293	52.659260	19.754528
7039.632961	111.396851	52.542370	20.046755
7039.636295	111.513733	52.893044	19.579193
7039.639652	110.929283	52.893044	19.345411
7039.642964	111.338402	53.535946	19.637638
7039.646299	111.630630	53.535946	19.871420
7039.649632	111.864410	53.477497	19.988310
7039.652973	111.922852	53.068382	20.455875
7039.656300	111.805962	52.951492	20.222092
7039.659628	111.396851	53.769726	19.520748
7039.662970	111.864410	53.302162	19.579193
7039.666291	111.864410	53.535946	20.397429
7039.669626	112.273529	53.769726	19.286966
7039.672958	112.857971	53.419052	19.170076
7039.676290	112.799538	54.587959	19.696083
7039.679624	113.150200	54.003506	19.637638
7039.682988	113.208649	53.828167	19.053185
7039.686299	113.617767	54.003506	19.579193
7039.689624	114.260658	54.178841	18.702513
7039.692961	114.436005	54.938633	18.877850
7039.696295	115.137352	54.821743	17.884277
7039.699621	115.780243	55.230862	18.234951
7039.702966	115.488014	54.938633	17.592052
7039.707164	117.066040	55.698425	16.481590
7039.710546	117.767380	55.523087	15.254237
7039.713923	118.760956	56.341320	16.014027
7039.717141	119.462296	56.458210	15.429573
7039.720467	120.338989	56.984222	14.436002
7039.723383	121.157219	57.451786	13.793103
7039.726741	121.975456	57.744007	12.916424
7039.730047	123.027466	58.270020	11.922852
7039.733373	123.904144	58.679134	11.396844
7039.736284	124.897720	59.322037	11.104617
7039.739625	125.014618	60.140270	10.753945
7039.742954	126.417305	60.958504	9.000585
7039.746288	127.293983	61.659847	9.468147
7039.749622	128.871994	61.309177	8.007013
7039.753008	128.755112	61.893631	7.305669
7039.756322	129.924026	62.419636	5.435418
7039.759616	131.151382	62.711864	4.792519
7039.762950	131.852722	63.413208	3.974284
7039.766286	133.080063	64.348335	3.272940
7039.769636	133.781403	65.108124	3.039158
7039.772949	135.242538	65.400352	1.227352
7039.776283	136.294571	66.277031	0.292227
7039.779617	137.463470	66.803040	-1.402689
7039.782962	139.099945	66.978378	-1.928697
7039.786282	140.268845	68.322617	-3.272940
7039.789616	141.788422	68.790176	-3.915838
7039.792949	142.372879	69.140854	-5.493863
7039.796287	144.009354	70.134422	-6.604325
7039.799645	145.412033	71.361771	-7.948568
7039.802945	146.639389	71.478668	-9.468147
7039.806279	148.100525	72.238457	-10.403274
7039.809612	149.444763	73.056694	-12.215078
7039.812958	151.081238	73.290474	-12.682642
7039.817233	154.529510	74.693161	-16.014027
7039.820472	155.990646	75.569847	-17.942724
7039.823794	157.685562	76.212738	-19.812975
7039.827124	159.380478	77.264755	-22.033899
7039.830490	161.075394	78.550552	-23.319696
7039.833370	162.770309	78.959671	-24.430157
7039.836731	165.341904	79.777908	-26.826418
7039.840062	167.036819	80.596146	-28.930450
7039.843415	168.790192	81.706604	-31.794271
7039.846734	170.894211	82.291061	-34.307423
7039.849608	172.706024	83.635300	-36.528347
7039.852943	175.277618	84.804207	-39.392166
7039.856300	177.440094	86.265343	-42.489773
7039.859608	179.368790	87.668030	-45.061367
7039.862939	181.648163	88.194038	-48.042080
7039.866275	184.161301	89.304504	-50.613678
7039.869617	186.382233	90.765633	-54.178841
7039.872940	188.895386	92.051437	-57.159554
7039.876275	190.999420	93.512566	-60.490944
7039.879605	193.161896	94.330803	-63.471649
7039.882939	195.908813	95.908829	-67.212158
7039.886302	197.662186	97.136177	-71.069550
7039.889604	199.590881	98.363533	-75.803627
7039.892940	201.870255	100.000000	-78.316772
7039.896274	204.792526	101.168907	-82.641731
7039.899605	206.779663	102.396263	-87.668030
7039.902939	209.292816	103.915833	-91.876099
7039.906271	211.396835	104.909409	-96.084160
7039.909685	214.143784	107.305672	-99.707771
7039.912951	216.540024	108.474579	-103.623619
7039.916273	219.053192	109.760376	-108.825241
7039.919605	221.566345	110.578606	-113.617767
7039.922970	224.137924	112.273529	-117.942726
7039.927560	228.638214	115.078903	-127.936874
7039.930501	230.625366	116.423141	-134.015198
7039.933812	233.664520	118.059608	-139.509064
7039.937207	236.060791	119.579193	-144.827576
7039.940524	238.398605	120.689651	-150.438339
7039.943398	240.151947	122.384575	-157.101105
7039.946743	242.431335	123.611923	-162.711853
7039.950027	244.944473	124.780830	-169.082397
7039.953365	247.223846	126.241959	-176.212738
7039.956694	249.620102	127.469315	-183.284622
7039.959602	251.724152	128.404434	-189.772064
7039.962930	253.711273	130.099350	-197.954422
7039.966305	255.523087	131.326706	-204.792526
7039.969602	257.451782	132.437164	-212.916428
7039.972942	259.789581	132.963181	-221.800110
7039.976262	261.426056	134.658096	-230.333130
7039.979599	263.062531	136.002335	-237.814148
7039.982930	264.874329	136.820572	-247.165390
7039.986258	265.867920	137.989487	-256.750427
7039.989590	267.212158	139.099945	-266.277039
7039.992930	267.971954	139.509064	-275.277618
7039.996286	268.497955	140.853302	-285.330231
7039.999594	269.374634	141.846878	-295.616608
7040.002931	270.075989	142.665115	-305.026306
7040.006262	270.251312	143.658676	-315.780243
7040.009627	269.959106	144.301575	-326.358856
7040.012926	269.433075	145.061356	-336.820587
7040.016264	269.316193	145.938049	-348.217407
7040.019594	268.381073	145.236710	-358.971344
7040.022929	267.036804	146.113388	-370.134430
7040.026258	265.867920	146.522491	-381.414368
7040.029592	264.056122	146.814728	-392.226776
7040.032928	262.828766	146.873169	-404.091156
7040.036265	259.438934	147.048508	-415.488007
7040.040465	254.295731	146.580948	-438.749268
7040.043902	251.256592	146.230286	-449.444763
7040.047175	248.100525	145.821152	-460.958496
7040.050443	243.950912	145.236710	-472.180023
7040.053388	239.450623	143.658676	-484.628876
7040.056681	235.651657	142.781998	-495.850372
7040.060022	230.976028	141.671539	-507.188782
7040.063346	225.891281	140.093521	-518.760986
7040.066673	221.098785	138.690826	-529.398010
7040.069586	214.319107	136.995911	-541.203979
7040.072920	207.831665	134.716537	-551.957947
7040.076254	200.759796	132.495621	-562.244324
7040.079588	194.272354	129.982468	-573.232056
7040.082918	186.557571	127.001747	-582.933960
7040.086275	178.784332	124.137924	-593.278809
7040.089584	170.309753	120.923439	-604.324951
7040.092921	161.835175	117.533600	-614.377563
7040.096277	152.717712	113.325539	-623.378113
7040.099585	143.308014	110.344826	-632.203369
7040.102922	133.255417	106.312096	-640.794861
7040.106254	123.436584	102.279366	-648.509644
7040.109584	112.390411	97.954407	-656.808899
7040.112914	101.285805	92.928108	-664.699036
7040.116250	90.005844	88.427818	-670.835754
7040.119583	78.550552	83.927528	-678.024536
7040.122918	66.160141	79.193459	-682.875488
7040.126256	53.535946	73.991814	-688.310913
7040.129577	41.437756	68.848625	-692.518982
7040.132916	28.696669	63.763882	-696.025696
7040.136253	15.371127	58.620689	-699.707764
7040.139604	2.513150	53.652836	-701.636475
7040.142909	-11.279953	48.451199	-703.448303
7040.146245	-24.021040	43.249561	-703.857361
7040.150503	-50.555229	31.502045	-704.558777
7040.153764	-63.705437	26.651081	-703.272949
7040.157093	-76.972534	21.507891	-701.870239
7040.160434	-89.304504	16.014027	-699.240234
7040.163795	-101.928696	10.987726	-696.201050
7040.166669	-114.669785	6.078317	-692.811218
7040.170035	-126.592636	-0.467563	-688.661621
7040.173358	-138.398605	-4.441847	-683.693726
7040.176692	-149.970779	-9.760374	-678.141479
7040.179584	-161.367615	-14.786674	-672.589111
7040.182926	-171.712448	-19.812975	-666.510803
7040.186242	-182.758621	-24.488602	-659.438965
7040.189579	-193.220337	-29.573349	-651.548828
7040.192914	-203.389832	-33.489189	-644.301575
7040.196246	-212.215088	-38.573933	-636.236084
7040.199574	-221.391006	-43.366451	-628.170654
7040.202910	-230.391571	-47.340736	-618.936279
7040.206245	-238.047928	-52.191700	-609.818848
7040.209576	-245.704269	-55.756866	-601.052002
7040.212904	-253.009933	-60.490944	-590.707214
7040.216245	-259.964935	-64.289894	-580.654602
7040.219573	-267.095245	-68.264175	-569.842224
7040.222907	-273.232025	-71.946228	-559.146667
7040.226236	-280.303894	-75.160721	-549.094116
7040.229574	-285.154877	-79.076561	-538.223267
7040.232903	-290.122711	-82.115723	-526.651123
7040.236239	-294.447693	-84.804207	-516.540039
7040.239571	-299.181763	-88.661598	-503.623627
7040.242930	-303.506744	-90.940971	-491.817657
7040.246235	-307.305664	-92.694328	-480.829895
7040.249568	-310.052612	-95.675049	-467.562805
7040.252904	-313.325562	-97.545296	-455.406189
7040.256251	-315.721802	-99.240204	-443.600220
7040.260411	-319.637634	-102.688492	-420.046753
7040.263759	-321.215668	-104.208061	-408.240784
7040.267111	-322.676788	-105.552307	-396.493256
7040.270437	-323.261261	-106.838104	-384.687317
7040.273357	-324.254822	-107.714783	-373.582703
7040.276686	-324.547058	-108.240799	-363.179413
7040.280101	-324.663940	-108.416130	-350.672119
7040.283330	-324.430145	-109.000587	-339.684387
7040.286680	-324.371704	-109.701935	-328.930450
7040.289565	-323.904144	-110.227943	-318.351837
7040.292894	-322.676788	-109.760376	-307.364105
7040.296236	-321.917023	-110.052597	-298.012848
7040.299570	-320.514313	-109.701935	-287.551147
7040.302896	-318.994751	-109.701935	-278.608978
7040.306230	-317.475159	-109.175919	-268.497955
7040.309562	-315.897125	-108.825241	-259.614258
7040.312894	-314.260681	-108.533028	-251.022797
7040.316230	-312.273529	-107.305672	-242.898895
7040.319570	-310.695496	-107.481003	-234.132080
7040.322916	-307.831665	-107.071892	-226.417297
7040.326226	-306.195221	-106.253647	-217.708939
7040.329561	-304.149628	-105.727646	-210.344833
7040.332893	-300.876678	-105.435417	-202.980713
7040.336232	-298.947968	-104.558739	-194.915253
7040.339625	-295.675049	-104.266510	-188.603149
7040.342897	-293.571014	-103.448273	-181.998840
7040.346229	-290.765656	-102.863823	-175.336060
7040.349561	-288.018707	-102.630043	-168.205719
7040.352901	-285.213318	-102.045586	-162.127411
7040.356224	-282.933960	-100.935127	-155.873764
7040.359560	-280.303894	-100.935127	-149.737000
7040.362896	-278.199890	-99.824661	-143.834015
7040.367546	-272.004669	-98.947983	-133.196960
7040.370433	-268.673309	-98.071304	-128.170654
7040.373804	-266.393921	-97.077736	-122.735237
7040.377158	-263.705444	-97.194626	-117.182938
7040.380498	-260.198700	-96.201050	-111.981293
7040.383319	-257.860901	-95.090591	-107.305672
7040.386662	-254.938629	-94.038574	-102.980713
7040.389981	-251.724152	-92.928108	-98.012856
7040.393314	-249.152542	-92.343658	-94.681473
7040.396223	-246.814728	-92.051437	-90.122734
7040.399560	-243.191116	-90.882523	-85.154877
7040.402893	-240.970184	-89.888954	-81.239037
7040.406219	-238.924591	-88.720047	-77.440094
7040.409555	-235.943893	-88.369377	-74.050262
7040.412885	-233.956741	-86.674461	-70.777321
7040.416241	-231.092926	-85.564003	-66.452370
7040.419549	-228.755112	-85.271767	-62.770306
7040.422889	-226.300400	-84.161308	-59.555817
7040.426223	-223.261261	-83.401520	-55.698425
7040.429552	-220.923447	-82.291061	-53.302162
7040.432885	-218.994736	-81.472816	-50.438339
7040.436222	-217.066055	-80.713036	-47.340736
7040.439558	-214.377548	-80.128578	-44.535358
7040.442881	-212.331970	-79.018112	-42.022209
7040.446217	-210.227936	-77.907654	-39.567505
7040.449549	-207.890137	-77.264755	-36.703682
7040.452879	-206.312103	-76.329628	-34.307423
7040.456211	-203.798935	-75.686737	-32.846291
7040.459564	-201.811813	-75.336060	-30.917591
7040.462881	-199.883102	-74.108711	-28.755114
7040.466213	-197.253067	-73.758034	-26.300409
7040.469553	-196.493286	-72.939804	-24.722383
7040.472881	-194.973694	-72.121567	-22.443016
7040.477101	-190.590302	-70.894211	-19.286966
7040.480417	-189.362946	-69.725304	-17.241379
7040.483817	-187.726471	-70.134422	-15.488018
7040.487177	-186.499115	-69.549973	-14.611338
7040.490423	-185.388657	-69.082413	-13.325541
7040.493309	-183.050842	-68.907074	-12.098188
7040.496683	-181.765045	-68.439507	-10.227938
7040.499971	-180.187027	-67.679718	-9.059030
7040.503314	-178.550552	-66.803040	-7.188778
7040.506210	-177.030975	-67.036819	-7.247224
7040.509550	-176.212738	-66.978378	-6.078317
7040.512877	-174.693161	-66.277031	-4.500292
7040.516216	-173.641144	-65.575691	-3.214494
7040.519544	-172.530685	-65.458801	-1.578025
7040.522880	-170.543533	-64.465225	-0.642899
7040.526207	-169.374634	-64.231445	1.110462
7040.529540	-168.147278	-64.173004	2.045588
7040.532874	-166.627701	-63.939220	2.980713
7040.536242	-165.867920	-63.413208	3.915838
7040.539579	-164.465225	-63.004089	4.792519
7040.542874	-163.237869	-62.478085	5.610754
7040.546219	-162.478073	-62.478085	6.253653
7040.549546	-161.542953	-61.367619	6.662770
7040.552872	-160.841614	-61.426067	8.065459
7040.556201	-160.315613	-60.549385	9.175920
7040.559546	-158.912918	-60.607834	9.585038
7040.562873	-158.270020	-60.140270	10.403274
7040.566208	-157.276459	-59.497368	10.520164
7040.569545	-157.393341	-59.497368	10.870836
7040.572869	-155.815308	-59.088253	12.039742
7040.576204	-155.406204	-59.380478	11.864407
7040.579535	-154.471069	-58.211571	12.624197
7040.582889	-154.178848	-57.919346	13.091760
7040.587118	-153.068375	-57.919346	13.909994
7040.590467	-152.483932	-57.977791	14.845119
7040.593743	-152.016373	-57.218002	14.260666
7040.597048	-151.957916	-56.691994	15.429573
7040.600393	-151.198120	-56.867332	15.721800
7040.603305	-151.022797	-56.633549	15.195791
7040.606626	-150.613678	-56.691994	15.137346
7040.609955	-150.496780	-56.282879	15.254237
7040.613316	-150.379898	-56.165989	16.072474
7040.616203	-150.263000	-56.575100	16.306253
7040.619535	-149.970779	-56.750443	15.663354
7040.622872	-149.912338	-56.224430	16.072474
7040.626229	-149.386322	-56.282879	15.780245
7040.629536	-149.737000	-56.165989	15.780245
7040.632878	-149.444763	-56.808884	16.540035
7040.636201	-149.327881	-56.750443	16.306253
7040.639532	-149.035660	-56.867332	16.247808
7040.642859	-149.327881	-56.750443	16.364700
7040.646205	-149.386322	-56.399769	16.656927
7040.649532	-149.795441	-57.276447	16.364700
7040.652860	-148.977203	-57.218002	16.481590
7040.656202	-150.146118	-57.393337	15.546463
7040.659534	-149.561661	-57.393337	15.897136
7040.662860	-150.029221	-57.334892	15.371127
7040.666194	-150.146118	-57.977791	16.306253
7040.669525	-150.847458	-57.744007	16.014027
7040.672863	-150.613678	-57.568676	14.728229
7040.676197	-150.438339	-57.744007	14.845119
7040.679522	-151.256577	-57.744007	15.020455
7040.682856	-151.490356	-57.802456	14.903564
7040.686195	-151.373474	-57.685566	14.085330
7040.689525	-152.133255	-57.919346	13.793103
7040.692868	-152.600815	-58.211571	13.033314
7040.697468	-153.185272	-58.854473	13.383986
7040.700380	-154.061951	-58.211571	13.150205
7040.703713	-154.412628	-58.153130	12.857978
7040.707060	-154.587967	-59.088253	12.215078
7040.710402	-155.581528	-59.263588	11.864407
7040.713362	-155.990646	-60.081821	11.046172
7040.716632	-157.276459	-59.263588	11.104617
7040.719998	-157.510239	-59.614258	10.111046
7040.723284	-157.977798	-60.315601	9.585038
7040.726608	-158.854477	-60.432495	8.474577
7040.729517	-160.023376	-60.666275	7.948568
7040.732854	-160.081833	-60.783165	6.662770
7040.736186	-162.068970	-61.659847	6.896552
7040.739522	-162.185852	-61.893631	6.136762
7040.742858	-163.705429	-61.542957	5.026300
7040.746184	-164.406769	-62.536526	3.798948
7040.749525	-165.283463	-62.828754	3.915838
7040.752851	-166.393921	-62.945644	1.753361
7040.756211	-167.679718	-63.939220	1.519579
7040.759521	-168.848618	-64.231445	-0.292227
7040.762849	-170.368210	-64.932785	-1.052016
7040.766186	-171.244888	-65.575691	-3.331385
7040.769515	-173.173584	-66.160141	-4.441847
7040.772852	-174.108704	-66.335472	-5.376973
7040.776237	-175.452942	-67.212158	-7.364114
7040.779519	-176.329636	-67.679718	-8.649913
7040.782851	-178.141434	-68.147285	-9.760374
7040.786188	-180.011688	-68.965515	-10.695500
7040.789517	-181.765045	-69.725304	-12.390414
7040.792853	-182.758621	-70.718880	-13.909994
7040.796189	-184.336655	-70.952660	-15.137346
7040.799549	-185.388657	-71.537109	-16.656927
7040.802853	-187.551147	-72.472237	-18.234951
7040.806176	-188.953827	-73.290474	-20.455875
7040.810384	-192.109879	-74.050262	-23.728813
7040.813722	-194.447693	-74.868500	-25.189949
7040.817099	-196.259491	-75.511398	-26.241964
7040.820449	-198.071304	-76.563416	-29.047340
7040.823324	-199.649323	-76.680305	-30.917591
7040.826597	-201.402695	-77.323204	-32.320282
7040.829940	-203.565170	-78.199883	-34.658096
7040.833265	-205.084747	-78.901222	-36.820572
7040.836599	-207.714798	-79.427238	-39.392166
7040.839510	-209.701920	-79.894798	-41.846874
7040.842887	-211.689072	-80.303917	-43.950905
7040.846177	-213.734650	-81.472816	-47.165401
7040.849515	-216.072464	-81.881943	-49.561657
7040.852846	-218.877838	-83.109299	-52.367039
7040.856177	-220.572754	-83.167740	-56.165989
7040.859505	-223.319702	-84.102859	-58.386909
7040.862842	-225.657516	-84.511986	-62.244301
7040.866172	-228.170654	-85.680893	-64.932785
