time (s)	magX	magY	magZ
2321.816980	-30.976036	-369.608429	-130.450027
2321.820307	-29.924021	-372.180023	-134.073639
2321.823663	-29.631794	-375.686737	-138.749268
2321.826975	-28.579777	-377.849213	-142.665115
2321.830306	-27.995323	-380.946808	-147.048508
2321.833636	-27.001753	-384.161316	-151.139694
2321.836971	-25.715956	-387.200470	-155.639984
2321.840318	-25.073057	-390.531860	-159.964935
2321.843638	-24.079485	-393.103455	-165.458801
2321.846970	-22.676798	-396.259491	-169.959091
2321.850300	-21.098774	-399.298645	-174.108704
2321.853637	-19.754528	-402.571594	-180.362350
2321.856967	-18.819405	-406.253662	-184.804214
2321.860309	-17.825832	-409.585052	-189.772064
2321.863637	-16.306253	-411.864410	-195.850388
2321.867009	-14.436002	-415.721802	-201.811813
2321.870307	-13.033314	-419.345428	-206.428986
2321.873641	-11.805962	-422.910583	-213.909988
2321.876974	-10.870836	-425.306854	-220.397430
2321.880304	-8.766803	-428.988892	-226.417297
2321.883636	-7.013443	-433.021637	-233.722977
2321.886967	-5.376973	-436.879028	-240.619522
2321.890298	-3.857393	-440.327301	-248.275848
2321.894561	0.175336	-447.925171	-263.880768
2321.897906	1.870251	-451.081238	-271.244873
2321.901193	3.682057	-455.347717	-280.070129
2321.904487	4.850964	-459.263611	-289.421387
2321.907388	6.954997	-463.530121	-298.714203
2321.910752	9.059030	-466.393890	-308.825256
2321.914060	11.163063	-471.127991	-318.293396
2321.917387	12.682642	-474.985413	-327.703094
2321.920724	14.552893	-479.777893	-338.106384
2321.923632	16.364700	-483.693756	-349.094116
2321.926966	18.819405	-487.668030	-359.731140
2321.930299	21.215664	-490.707214	-372.413788
2321.933627	22.793688	-495.032166	-383.810638
2321.936962	25.657511	-498.421967	-395.733490
2321.940323	27.878433	-501.461121	-408.006989
2321.943631	29.924021	-504.909424	-419.286957
2321.946962	32.612507	-507.247223	-432.437195
2321.950295	35.417885	-511.163055	-445.470490
2321.953625	38.164814	-513.793091	-457.977783
2321.956961	41.087086	-517.066040	-471.361786
2321.960302	43.892460	-519.871399	-485.330200
2321.963632	47.165401	-521.566345	-500.058472
2321.966956	50.672119	-524.313232	-513.150208
2321.970289	53.477497	-526.300415	-527.819946
2321.973626	57.393337	-528.229065	-541.613098
2321.976957	60.724724	-530.333130	-557.276428
2321.980294	64.640564	-532.554077	-570.660461
2321.983626	68.264175	-533.021667	-586.265320
2321.986956	72.472237	-534.132080	-602.863831
2321.990288	76.446518	-535.593201	-616.423157
2321.993627	80.303917	-536.177673	-631.560486
2321.996957	84.511986	-536.236084	-647.691406
2322.001224	92.986557	-536.119202	-680.537720
2322.004536	97.545296	-535.534790	-696.902405
2322.007804	101.519585	-535.125610	-713.384033
2322.011132	106.136765	-534.073608	-729.281128
2322.014501	111.572182	-531.911194	-747.866699
2322.017384	115.546463	-530.742249	-763.296326
2322.020716	121.449448	-528.229065	-781.648132
2322.024044	125.365280	-525.306824	-798.597290
2322.027408	130.917603	-523.787231	-816.540039
2322.030285	135.651657	-519.812988	-835.301025
2322.033619	140.210403	-515.955566	-852.367004
2322.036955	145.119812	-512.448853	-869.842224
2322.040285	150.789017	-507.656342	-889.655212
2322.043615	155.523087	-501.694916	-906.136780
2322.046953	160.666275	-497.019287	-924.605469
2322.050319	165.400345	-490.298096	-942.957275
2322.053614	169.783752	-484.336670	-960.023376
2322.056967	175.277618	-475.569824	-976.212769
2322.060282	179.894791	-467.796600	-992.986572
2322.063615	185.096436	-459.263611	-1009.643433
2322.066948	189.947403	-451.315033	-1027.586182
2322.070285	195.207474	-441.203979	-1041.145508
2322.073613	200.350662	-432.670959	-1056.049072
2322.076951	205.376984	-421.741669	-1070.718872
2322.080283	210.052612	-410.987701	-1086.265381
2322.083615	214.962006	-400.000000	-1097.779053
2322.086943	220.514328	-387.258911	-1112.098267
2322.090283	224.722382	-376.037415	-1124.430176
2322.093637	229.398010	-363.179413	-1134.424316
2322.096946	234.248978	-350.204559	-1146.931641
2322.100280	238.281708	-336.879028	-1156.399780
2322.103616	242.606659	-321.917023	-1165.341919
2322.107861	252.250153	-292.928131	-1183.109253
2322.111134	256.808868	-278.316772	-1188.135620
2322.114461	261.133850	-263.004089	-1194.856812
2322.117807	265.984802	-247.516083	-1199.006470
2322.121153	270.075989	-231.326706	-1202.630005
2322.124041	273.758026	-215.312668	-1207.539429
2322.127394	277.498535	-198.772644	-1209.760376
2322.130723	281.414368	-181.414383	-1211.630615
2322.134072	285.388672	-164.114563	-1214.435913
2322.136990	288.427826	-146.580948	-1213.325439
2322.140272	291.466980	-128.638214	-1213.676147
2322.143611	294.330811	-110.520157	-1212.331909
2322.146939	297.194611	-92.460548	-1211.805908
2322.150272	300.409119	-74.576271	-1208.766846
2322.153614	302.746948	-55.581535	-1206.136841
2322.156947	304.734070	-37.229691	-1200.876709
2322.160271	305.435425	-18.760958	-1197.194580
2322.163606	307.247223	-0.116891	-1190.940918
2322.166938	308.299225	18.877850	-1185.271729
2322.170275	308.883698	37.872589	-1177.323242
2322.173609	309.468140	55.932205	-1171.303345
2322.176939	309.877289	75.277618	-1162.945679
2322.180302	309.526581	94.038574	-1155.990723
2322.183603	309.117493	112.331978	-1144.593750
2322.186939	308.825256	130.683823	-1136.995850
2322.190269	307.305664	148.918762	-1125.131470
2322.193602	306.604309	166.218597	-1114.260620
2322.196935	305.084747	184.044418	-1103.682007
2322.200270	303.857391	200.233795	-1094.272339
2322.203608	301.753357	217.708939	-1081.180542
2322.206940	300.526001	234.248978	-1067.621216
2322.210308	298.305084	248.743408	-1054.529419
2322.214873	294.564575	279.602570	-1029.573364
2322.217789	291.525421	293.044983	-1014.143738
2322.221122	289.362946	307.247223	-1001.870239
2322.224484	287.784912	320.689667	-987.317383
2322.227805	285.271759	333.839874	-973.465820
2322.230726	283.167755	346.113403	-959.555786
2322.234053	281.063690	358.796021	-945.119873
2322.237439	277.966095	370.134430	-930.742249
2322.240728	275.511414	380.946808	-915.137390
2322.244029	272.472229	391.116302	-901.344177
2322.246931	270.543549	400.876678	-886.440674
2322.250267	268.322601	410.169495	-871.361755
2322.253623	265.341888	419.696106	-857.451843
2322.256928	261.776733	429.164215	-841.496155
2322.260262	259.380493	437.755676	-827.410889
2322.263597	255.990646	445.178284	-812.390442
2322.266938	252.951477	452.133270	-795.499695
2322.270265	250.029236	459.263611	-782.407959
2322.273595	246.697830	465.341888	-767.796631
2322.276924	243.307999	471.829315	-752.659302
2322.280263	239.450623	477.440063	-737.872620
2322.283626	236.060791	484.628876	-723.027466
2322.286924	232.729385	489.362946	-708.883728
2322.290264	229.164246	494.155457	-694.856812
2322.293589	225.189941	497.603760	-681.005249
2322.296933	221.449448	502.630035	-666.218567
2322.300262	217.708939	505.961426	-652.893066
2322.303589	214.085342	509.351257	-639.801270
2322.306932	210.227936	512.273499	-626.066650
2322.310256	205.961426	514.085327	-612.565735
2322.313590	202.162476	517.066040	-599.649353
2322.316932	198.538864	519.696106	-586.674438
2322.320261	194.798355	520.923401	-573.407349
2322.324879	187.317352	523.495056	-549.210999
2322.327819	182.583282	524.605530	-536.879028
2322.331128	179.544128	525.365295	-525.599060
2322.334501	175.628296	526.066650	-514.436035
2322.337839	172.180008	525.248413	-502.454712
2322.340720	168.381058	526.008179	-491.291656
2322.344017	165.400345	525.949707	-481.239044
2322.347347	162.244293	524.313232	-469.374664
2322.350688	159.146698	523.611938	-459.322021
2322.354008	155.464630	523.495056	-449.503235
2322.356925	152.659256	521.975464	-439.742859
2322.360254	149.269440	521.098755	-429.982483
2322.363586	145.938049	519.871399	-421.157227
2322.366918	143.191116	518.468689	-410.403259
2322.370263	140.911743	517.416687	-401.694916
2322.373588	137.989487	515.371155	-392.986572
2322.376915	135.359436	512.682617	-384.044403
2322.380247	132.670944	511.221497	-375.803619
2322.383588	130.157806	509.175934	-367.679718
2322.386914	127.235535	507.539459	-359.789581
2322.390250	124.663940	505.084747	-350.905884
2322.393586	122.267677	501.928711	-342.139099
2322.396915	119.579193	500.058472	-335.768555
2322.400266	117.182938	498.480408	-328.053772
2322.403588	114.436005	495.850372	-321.098785
2322.406914	112.331978	493.629456	-313.734650
2322.410252	110.227943	490.882538	-307.305664
2322.413604	108.007011	488.369385	-300.175323
2322.416918	105.844536	485.096466	-293.687897
2322.420242	103.448273	482.875488	-286.791351
2322.423582	101.519585	479.836365	-280.771484
2322.426913	98.480423	476.797211	-275.452942
2322.430245	96.727058	474.810089	-268.848633
2322.434873	92.402107	468.731750	-257.802460
2322.437794	90.590302	466.803040	-251.373459
2322.441238	87.960258	463.939240	-245.879608
2322.444506	85.797783	461.367615	-240.561081
2322.447864	83.635300	459.614288	-236.177689
2322.450676	81.648163	456.341309	-231.326706
2322.453998	79.953239	453.302155	-225.715942
2322.457362	77.673874	451.198151	-220.514328
2322.460673	76.095848	448.743439	-215.897125
2322.464000	74.167160	445.879608	-211.689072
2322.466906	71.946228	443.717133	-207.597900
2322.470246	70.426651	441.496185	-202.045578
2322.473581	68.556396	438.807739	-198.831100
2322.476913	66.393921	436.411469	-195.207474
2322.480240	65.400352	433.898315	-191.116302
2322.483577	63.646992	431.092926	-187.843369
2322.486907	62.478085	428.872009	-183.635300
2322.490242	60.549385	426.767975	-180.537704
2322.493588	59.614258	424.196381	-177.498550
2322.496911	57.627117	421.800140	-174.517822
2322.500284	57.101112	419.696106	-171.770889
2322.503578	55.230862	418.176514	-168.030396
2322.506907	53.535946	415.488007	-164.874344
2322.510235	52.893044	413.734680	-162.244293
2322.513572	52.250145	411.747498	-160.140259
2322.516906	51.139683	409.818848	-157.510239
2322.520239	50.087666	407.714783	-154.704865
2322.523568	49.094097	405.669220	-152.308594
2322.526907	48.042080	403.682037	-149.737000
2322.530236	46.639393	401.870239	-147.048508
2322.533566	46.054939	400.759796	-144.710693
2322.536944	45.002922	398.305084	-142.606659
2322.540237	44.009354	397.428406	-140.794861
2322.543570	42.898891	395.207489	-138.340149
2322.547773	40.677963	392.460571	-134.891876
2322.551157	40.093510	390.940979	-133.138519
2322.554486	39.684395	388.836945	-131.092926
2322.557826	38.340153	388.252472	-129.281128
2322.561075	37.054356	386.323792	-127.235535
2322.563995	36.353008	385.096436	-126.183525
2322.567332	35.300995	383.343079	-124.021042
2322.570655	34.950321	382.174164	-123.261246
2322.573985	34.132088	381.297485	-120.397423
2322.576901	33.080070	380.187042	-118.527176
2322.580246	31.677380	379.310333	-118.059608
2322.583568	31.092926	378.082977	-116.773819
2322.586897	30.917591	376.680298	-115.780243
2322.590229	28.755114	375.277618	-114.962006
2322.593561	28.813559	374.868500	-113.091751
2322.596894	27.703098	373.641144	-112.565758
2322.600246	26.884863	373.173584	-111.864410
2322.603579	25.832848	372.472229	-111.221504
2322.606892	25.365284	371.595551	-109.585037
2322.610233	24.897720	371.069550	-108.182350
2322.613559	23.611923	370.894226	-108.299240
2322.616895	23.611923	370.134430	-107.948563
2322.620228	22.969025	370.485077	-107.364120
2322.623590	21.917007	369.900635	-107.188774
2322.626897	21.800117	369.374634	-107.422554
2322.630229	21.215664	368.790161	-106.604324
2322.633559	21.215664	368.497955	-106.487427
2322.636891	20.748100	368.381073	-107.247223
2322.640228	20.397429	368.264160	-105.844536
2322.643558	19.754528	368.673309	-105.435417
2322.646888	19.462303	367.855042	-105.786087
2322.650229	19.520748	368.439514	-105.902985
2322.653556	18.702513	368.088837	-105.727646
2322.657862	18.059614	368.147278	-106.195213
2322.661151	17.592052	368.205750	-107.013443
2322.664413	17.299826	369.316193	-106.838104
2322.667781	17.066044	369.140869	-107.305672
2322.671072	16.423145	369.316193	-107.597900
2322.673997	16.423145	369.842194	-108.182350
2322.677317	15.546463	370.075989	-108.649910
2322.680650	15.312682	370.952667	-108.357681
2322.683995	15.137346	371.887787	-108.240799
2322.686886	14.202221	372.296906	-109.643486
2322.690220	14.319112	372.472229	-110.111046
2322.693551	14.786674	372.647583	-110.403275
2322.696891	14.260666	373.348938	-111.396851
2322.700251	14.260666	373.933350	-111.396851
2322.703551	13.091760	375.511414	-112.039742
2322.706884	12.448860	376.095856	-113.033318
2322.710249	12.273524	376.504974	-113.676216
2322.713551	12.039742	377.381653	-114.494446
2322.716890	11.396844	379.427246	-115.721802
2322.720217	11.046172	379.953247	-116.890701
2322.723548	10.578609	380.829926	-117.358269
2322.726884	9.760374	382.232605	-118.001160
2322.730221	9.701928	383.518402	-120.397423
2322.733553	9.000585	384.219757	-122.384575
2322.736880	8.825249	385.680878	-123.845711
2322.740216	8.766803	386.265350	-124.839272
2322.743547	8.357686	388.369385	-125.774399
2322.746886	8.240795	389.947388	-128.053772
2322.750216	7.305669	391.700775	-129.573349
2322.753569	7.539450	393.161896	-130.859146
2322.756881	7.364114	394.506134	-132.378723
2322.760212	6.779661	396.785492	-134.950317
2322.764490	6.662770	400.233795	-139.859741
2322.767734	6.019871	402.220917	-142.197556
2322.771057	6.136762	404.208099	-144.418472
2322.774400	6.487434	406.721222	-146.347168
2322.777767	6.019871	407.714783	-149.269440
2322.780638	5.376973	409.000580	-151.081238
2322.783997	5.669199	412.215088	-154.061951
2322.787321	5.026300	414.552887	-157.042664
2322.790652	5.435418	415.429596	-159.380478
2322.794000	5.669199	418.527161	-162.419647
2322.796905	5.201637	420.865021	-165.809464
2322.800209	4.967855	422.735260	-168.556396
2322.803549	4.909410	425.189911	-171.069550
2322.806871	4.792519	427.995361	-174.926941
2322.810206	4.617183	430.625336	-178.316772
2322.813538	4.441847	432.670959	-181.589706
2322.816870	3.974284	435.476349	-184.161301
2322.820213	3.857393	438.106384	-188.077148
2322.823541	3.682057	440.035065	-192.051437
2322.826873	3.156049	442.489777	-195.324371
2322.830208	3.389831	445.938049	-199.240204
2322.833538	3.331385	448.860321	-203.565170
2322.836876	2.454705	450.847443	-207.481003
2322.840225	1.928697	453.652802	-210.753937
2322.843541	1.987142	455.698456	-214.260681
2322.846874	1.402689	459.731140	-219.170074
2322.850199	0.876680	463.004120	-223.378128
2322.853535	0.233781	465.458771	-228.229111
2322.856872	-0.993571	467.913483	-232.554047
2322.860199	-1.285798	471.244904	-237.171249
2322.863534	-2.279369	473.290497	-241.554642
2322.866878	-2.746932	477.498535	-246.931625
2322.870205	-3.389831	480.596161	-252.074814
2322.874827	-4.266511	487.025116	-263.062531
2322.877747	-4.909410	490.181152	-268.965515
2322.881078	-4.967855	492.811218	-274.576294
2322.884447	-6.019871	496.960815	-280.888367
2322.887782	-6.545880	499.649323	-286.791351
2322.890659	-6.896552	503.214508	-293.103455
2322.893984	-7.364114	505.902954	-299.824677
2322.897289	-7.597896	509.935699	-307.013428
2322.900626	-8.065459	512.273499	-314.143768
2322.903533	-8.883694	514.962036	-322.033905
2322.906864	-9.292811	519.111633	-328.930450
2322.910199	-9.351256	521.098755	-335.885468
2322.913534	-10.637054	524.956177	-344.710693
2322.916862	-10.578609	527.703125	-352.893036
2322.920197	-11.046172	531.034485	-360.666260
2322.923530	-11.805962	533.956787	-370.075989
2322.926897	-12.273524	536.703674	-378.082977
2322.930198	-13.325541	540.151978	-386.966675
2322.933533	-13.559322	542.197571	-395.733490
2322.936862	-14.202221	545.762756	-404.441833
2322.940196	-15.371127	547.165405	-413.442413
2322.943527	-16.189363	549.912292	-421.741669
2322.946861	-16.890707	552.717712	-431.268250
2322.950198	-17.416716	554.295715	-441.729980
2322.953533	-18.293396	556.750427	-451.665680
2322.956866	-19.462303	558.796021	-460.140289
2322.960188	-21.157219	560.607788	-470.368195
2322.963530	-21.858562	562.185852	-481.355957
2322.966862	-22.910578	564.757446	-492.460541
2322.970225	-24.547049	566.627686	-502.396240
2322.973525	-25.774401	566.744629	-512.799561
2322.976864	-27.352425	568.731750	-524.722412
2322.980196	-28.755114	569.959045	-536.353027
2322.984374	-31.677380	570.894165	-559.380493
2322.987726	-33.664524	570.777344	-571.127991
2322.991065	-35.008766	572.706055	-582.349487
2322.994458	-36.528347	571.244934	-595.499695
2322.997304	-38.398598	571.303345	-608.883728
2323.000684	-39.041496	570.894165	-621.098755
2323.003944	-41.671539	569.023926	-633.898315
2323.007281	-43.600235	568.965515	-646.464050
2323.010612	-45.645821	566.978333	-660.257141
2323.013519	-47.516071	565.692566	-674.050293
2323.016852	-48.334305	562.010498	-687.901855
2323.020197	-50.379898	560.958496	-702.688477
2323.023518	-52.542370	558.094666	-716.481567
2323.026850	-53.945057	555.289307	-730.274658
2323.030188	-56.282879	552.191711	-746.288757
2323.033520	-57.860901	547.282288	-759.380493
2323.036858	-59.731148	543.366455	-775.686768
2323.040181	-61.835182	538.457031	-790.356506
2323.043521	-64.173004	533.430725	-805.201599
2323.046851	-65.984802	527.878418	-819.812988
2323.050180	-66.978378	520.864990	-835.768494
2323.053521	-70.426651	515.195801	-851.022827
2323.056845	-72.180008	507.773193	-866.335510
2323.060182	-74.167160	500.292206	-882.407959
2323.063555	-76.621857	492.635864	-897.136230
2323.066856	-78.609001	484.219727	-914.494446
2323.070180	-81.005257	476.095856	-928.287476
2323.073515	-83.226189	466.686157	-942.957275
2323.076846	-85.388657	457.276428	-957.101135
2323.080177	-88.603157	446.990051	-972.472168
2323.083517	-90.590302	437.112793	-987.317383
2323.086850	-93.395676	426.475769	-1001.052002
2323.091471	-97.895966	403.915833	-1030.975952
2323.094425	-101.052025	391.583862	-1044.476929
2323.097791	-103.389832	379.368774	-1060.023437
2323.101160	-106.545876	366.335480	-1074.868530
2323.103956	-109.526596	353.652832	-1087.668091
2323.107293	-111.864410	339.859711	-1100.818237
2323.110606	-114.962006	325.599060	-1113.793091
2323.113934	-118.118057	311.455292	-1127.235474
2323.117265	-121.098770	296.259491	-1140.561157
2323.120179	-124.663940	281.180603	-1152.250122
2323.123506	-127.293983	266.335480	-1164.582153
2323.126843	-130.040909	250.672119	-1177.089355
2323.130180	-133.138519	234.190536	-1187.317383
2323.133511	-135.534775	217.416718	-1199.649292
2323.136845	-139.099945	201.227356	-1209.994141
2323.140181	-141.320862	183.985977	-1220.280518
2323.143508	-143.834015	166.686157	-1229.982422
2323.146835	-146.230286	148.509644	-1238.340210
2323.150192	-149.094086	130.800705	-1248.100586
2323.153512	-151.256577	112.565758	-1255.464600
2323.156838	-153.886612	94.564583	-1264.406738
2323.160257	-156.224426	76.388077	-1271.303345
2323.163510	-158.153122	57.042664	-1279.368774
2323.166841	-160.198715	39.392166	-1284.511963
2323.170172	-161.718292	19.929865	-1289.538330
2323.173510	-163.471649	1.694915	-1295.558105
2323.176841	-164.991241	-17.533606	-1299.766235
2323.180176	-166.569260	-36.060783	-1304.324951
2323.183506	-167.971939	-55.113972	-1307.130371
2323.186837	-169.257751	-74.167160	-1308.825195
2323.190169	-170.718872	-92.168327	-1310.403198
2323.193509	-172.238464	-110.286377	-1310.987793
2323.198189	-173.933380	-145.295135	-1310.461670
2323.201046	-174.810059	-163.062531	-1310.286377
2323.204435	-175.628296	-180.011688	-1308.007080
2323.207765	-176.212738	-196.843948	-1305.084717
2323.211078	-177.206314	-212.741089	-1301.519531
2323.213924	-177.849213	-228.462891	-1298.480469
2323.217261	-178.550552	-244.126251	-1293.921631
2323.220590	-179.076569	-258.854462	-1288.778442
2323.223921	-180.537704	-274.634705	-1284.044434
2323.226833	-180.888367	-288.603149	-1276.095825
