time (s)	magX	magY	magZ
7118.311765	198.947983	8.007013	-39.859730
7118.315100	196.610168	7.773232	-37.171246
7118.318461	194.739914	7.364114	-34.599651
7118.321762	192.577438	7.422560	-32.320282
7118.325095	190.298065	7.364114	-29.631794
7118.328427	187.843369	7.422560	-28.229105
7118.331758	185.797775	7.714787	-26.008183
7118.335097	183.226181	7.364114	-23.728813
7118.338425	181.648163	7.013443	-21.975452
7118.341763	179.894791	7.422560	-20.689655
7118.345159	177.732330	7.305669	-18.001169
7118.349699	174.050262	7.597896	-14.962010
7118.352603	172.472244	7.597896	-14.494448
7118.355943	170.601990	7.305669	-12.331969
7118.359291	169.199295	7.305669	-11.221508
7118.362652	167.095261	7.130333	-9.175920
7118.365539	165.225021	7.305669	-9.175920
7118.368883	164.056107	7.013443	-7.364114
7118.372222	163.471649	7.305669	-5.902981
7118.375512	161.484512	6.662770	-5.552309
7118.378847	159.672699	7.247224	-3.682057
7118.381756	158.503799	7.071887	-2.279369
7118.385089	157.393341	6.545880	-1.461134
7118.388423	156.165985	6.604325	0.175336
7118.391793	154.821747	6.487434	1.578025
7118.395089	153.535934	6.662770	2.454705
7118.398417	152.074814	6.370543	3.156049
7118.401753	150.613678	6.195207	4.266511
7118.405090	149.737000	6.312099	4.792519
7118.408421	147.808304	6.312099	6.253653
7118.411753	147.048508	5.786090	7.071887
7118.415081	145.879608	6.195207	8.065459
7118.418415	145.061356	5.786090	9.175920
7118.421753	144.126236	5.844535	10.169491
7118.425085	142.665115	5.376973	10.344828
7118.428421	141.788422	5.493863	11.572180
7118.431777	140.736420	5.669199	11.572180
7118.435111	140.093521	6.136762	12.273524
7118.438412	138.690826	5.961426	13.793103
7118.441750	138.047928	5.844535	14.085330
7118.445088	136.762131	5.552309	14.552893
7118.448424	135.768555	5.435418	15.488018
7118.451746	135.184097	5.786090	15.838690
7118.455086	134.599655	5.669199	16.598480
7118.458413	133.781403	5.727644	16.364700
7118.462622	132.670944	5.844535	18.059614
7118.465983	132.144943	5.435418	18.293396
7118.469374	131.326706	5.961426	19.111629
7118.472659	131.034485	5.552309	18.468731
7118.475990	130.683823	5.961426	19.170076
7118.478879	129.807129	6.487434	18.877850
7118.482164	129.631790	6.195207	19.286966
7118.485503	129.164230	5.552309	19.871420
7118.488846	129.047348	6.019871	19.637638
7118.491751	128.638214	6.545880	19.812975
7118.495079	128.871994	5.844535	19.812975
7118.498409	128.930450	6.253653	19.696083
7118.501746	128.287552	5.727644	20.163647
7118.505072	128.229111	6.312099	19.228521
7118.508411	127.469315	6.195207	19.929865
7118.511746	128.112213	6.019871	19.637638
7118.515076	127.644661	6.078317	19.637638
7118.518407	127.644661	6.136762	19.754528
7118.521745	127.761543	6.604325	19.286966
7118.525082	127.469315	5.902981	19.579193
7118.528412	127.586212	6.428989	19.929865
7118.531747	127.644661	6.312099	19.812975
7118.535074	127.060196	6.195207	19.812975
7118.538409	127.235535	5.669199	20.572765
7118.541743	127.703094	5.727644	20.397429
7118.545078	127.761543	6.019871	20.572765
7118.548409	127.410873	5.844535	19.637638
7118.551761	128.053772	6.312099	20.514320
7118.555075	127.469315	6.370543	20.572765
7118.558404	127.761543	5.610754	20.514320
7118.561742	127.936874	5.669199	19.871420
7118.565070	127.878441	6.078317	20.163647
7118.568404	128.988892	6.370543	20.631210
7118.571736	128.638214	6.370543	20.338982
7118.575990	129.222687	6.312099	19.228521
7118.579322	129.222687	6.312099	19.345411
7118.582587	129.924026	6.370543	19.403856
7118.585918	130.859146	7.071887	18.702513
7118.589260	130.683823	6.779661	19.111629
7118.592156	131.677383	6.779661	18.118059
7118.595504	132.203384	7.422560	18.234951
7118.598853	133.138519	7.013443	18.351841
7118.602178	133.898300	7.539450	17.533606
7118.605066	134.190536	7.481005	17.124489
7118.608400	134.716537	7.597896	16.423145
7118.611757	135.476334	7.364114	15.955583
7118.615069	136.352997	8.708358	15.429573
7118.618406	137.112793	8.474577	14.319112
7118.621730	138.457047	8.182350	14.260666
7118.625063	138.749268	8.416131	14.202221
7118.628399	139.684387	8.883694	13.383986
7118.631727	140.853302	9.175920	11.747516
7118.635063	141.905319	9.000585	10.812390
7118.638422	142.723541	9.175920	11.221508
7118.641728	143.541794	9.234365	9.351256
7118.645062	144.944473	9.818819	9.994155
7118.648402	146.347168	9.877264	7.890122
7118.651729	147.223846	9.818819	7.714787
7118.655061	148.860306	9.935710	6.779661
7118.658395	149.269440	10.403274	5.610754
7118.661732	150.555237	10.461719	4.324956
7118.665063	152.308594	11.104617	3.740503
7118.668397	153.302155	11.046172	3.156049
7118.671728	153.886612	10.344828	2.688486
7118.675059	155.990646	11.046172	0.759790
7118.678403	157.334885	11.163063	-0.759790
7118.681755	158.445358	11.279953	-1.519579
7118.686334	161.192291	11.572180	-4.558738
7118.689254	162.536530	12.039742	-5.376973
7118.692598	164.757462	11.864407	-7.305669
7118.695954	165.926361	12.565751	-8.357686
7118.699343	167.679718	12.565751	-9.000585
7118.702173	169.316177	12.039742	-10.753945
7118.705504	170.894211	12.974869	-12.331969
7118.708817	172.296906	13.033314	-13.617767
7118.712148	174.284042	14.026885	-15.195791
7118.715484	175.803619	13.734658	-16.423145
7118.718388	178.199890	13.793103	-18.410286
7118.721724	179.661011	14.319112	-19.520748
7118.725085	182.057266	14.319112	-21.858562
7118.728387	183.927521	14.728229	-23.845703
7118.731720	185.739334	15.312682	-25.248394
7118.735057	188.018707	14.962010	-27.293980
7118.738392	189.713623	15.721800	-29.865574
7118.741716	192.051437	16.423145	-32.378727
7118.745049	194.213913	16.715372	-34.833431
7118.748383	196.902390	16.773817	-37.638809
7118.751722	198.947983	17.533606	-40.619518
7118.755050	201.344254	18.118059	-42.606663
7118.758386	203.506729	18.644068	-45.178257
7118.761761	206.195206	18.819405	-48.451199
7118.765048	208.416122	19.520748	-51.256573
7118.768411	210.987732	19.637638	-54.412621
7118.771714	214.026886	19.988310	-58.094681
7118.775052	216.832260	20.631210	-61.426067
7118.778385	219.111633	21.741673	-64.932785
7118.781723	221.624786	21.274109	-68.907074
7118.785053	224.079483	22.501461	-72.706017
7118.788386	227.527756	22.676798	-76.797195
7118.791719	229.398010	23.027470	-80.070129
7118.796396	235.534760	24.021040	-89.479836
7118.799255	238.340164	24.663939	-93.454124
7118.802674	240.502625	24.196377	-97.194626
7118.805970	243.191116	25.189949	-103.389832
7118.809234	245.821167	26.183519	-106.487427
7118.812168	248.451202	26.241964	-112.215080
7118.815475	251.315018	26.358854	-116.306259
7118.818806	254.178833	27.352425	-122.209236
7118.822136	256.633545	27.352425	-126.943298
7118.825476	260.198700	27.761543	-132.378723
7118.828376	262.828766	27.995323	-137.872589
7118.831710	265.458801	28.988895	-143.541794
7118.835049	268.439514	29.514902	-148.918762
7118.838378	270.894226	29.924021	-155.172424
7118.841709	273.115143	30.157801	-160.900055
7118.845046	275.628296	30.683809	-168.556396
7118.848450	278.258331	31.794271	-174.693161
7118.851716	281.239044	31.502045	-180.537704
7118.855069	282.992401	32.086502	-188.895386
7118.858379	285.563995	32.495617	-195.382828
7118.861707	288.135590	33.489189	-202.805374
7118.865043	291.291656	33.781414	-210.987732
7118.868377	292.928131	34.541206	-219.228531
7118.871705	294.506134	35.067211	-227.060196
7118.875038	297.019287	35.827003	-235.359436
7118.878372	298.655762	36.177673	-243.541794
7118.881710	301.344238	37.346581	-252.542374
7118.885040	302.688477	38.047924	-261.659851
7118.888372	303.974304	38.340153	-271.011108
7118.891705	305.844543	38.690823	-281.297485
7118.895035	306.662781	39.333721	-291.233215
7118.898384	307.948578	40.327293	-301.928680
7118.901707	308.649933	40.151958	-311.572174
7118.905041	308.825256	40.911751	-322.326141
7118.909299	309.701904	42.548218	-343.775574
7118.912638	308.942139	42.782001	-355.639984
7118.915872	309.234344	42.665108	-366.919922
7118.919228	308.123901	43.249561	-377.849213
7118.922547	307.188782	44.009354	-390.005859
7118.925457	305.844543	43.366451	-400.409119
7118.928802	303.740509	43.834015	-411.689087
7118.932126	302.279388	43.834015	-423.787262
7118.935508	299.532440	44.126244	-435.184082
7118.938817	296.785492	44.067799	-446.522522
7118.941707	293.512573	44.535358	-458.620697
7118.945039	290.940979	43.775570	-469.666870
7118.948364	287.609589	44.476913	-482.466400
7118.951704	282.875519	43.600235	-493.687927
7118.955033	278.433655	43.950905	-505.376953
7118.958365	273.991821	43.600235	-517.299866
7118.961699	269.082397	43.249561	-527.936890
7118.965035	263.296326	42.606663	-538.457031
7118.968370	257.276428	42.255993	-549.561646
7118.971696	251.490356	42.080654	-560.490967
7118.975028	244.827576	41.262421	-571.361755
7118.978400	237.814148	40.970196	-581.881958
7118.981693	230.625366	40.677963	-592.168335
7118.985034	222.267670	39.392166	-602.746887
7118.988358	214.552902	38.983051	-611.864441
7118.991698	205.552322	37.638809	-621.566345
7118.995027	196.434830	37.346581	-631.268250
7118.998358	186.966675	36.469902	-639.567505
7119.001691	176.388077	35.476330	-647.691406
7119.005050	166.101700	34.774986	-656.399780
7119.008366	155.406204	33.372299	-663.237854
7119.011694	143.950897	32.261837	-671.361755
7119.015026	132.729401	31.618935	-678.842773
7119.018365	120.397423	30.391582	-683.518433
7119.022573	95.265923	27.410872	-695.324402
7119.025869	82.875511	26.709526	-699.649353
7119.029237	69.549973	25.189949	-703.506714
7119.032590	55.523087	23.845703	-707.831665
7119.035945	42.489773	22.326126	-709.935730
7119.038842	28.696669	21.157219	-711.747498
7119.042171	15.312682	18.585623	-713.267090
7119.045474	1.753361	17.825832	-713.676208
7119.048780	-12.507306	16.072474	-714.143738
7119.051691	-26.066628	14.494448	-713.734680
7119.055021	-39.567505	11.922852	-712.156616
7119.058359	-52.951492	10.344828	-711.221497
7119.061692	-66.686150	8.649913	-708.007019
7119.065053	-79.544128	6.662770	-704.383423
7119.068351	-92.343658	5.318527	-701.578064
7119.071688	-105.260086	3.857393	-696.960815
7119.075020	-117.475166	1.227352	-692.168335
7119.078353	-129.807129	-1.344243	-687.668030
7119.081685	-141.262421	-3.506721	-681.881958
7119.085017	-152.717712	-4.967855	-675.920532
7119.088351	-163.705429	-6.662770	-669.549988
7119.091685	-174.576263	-9.000585	-662.302734
7119.095018	-184.687317	-10.578609	-654.997070
7119.098397	-194.915253	-11.747516	-646.639404
7119.101683	-204.909424	-13.793103	-638.749268
7119.105020	-213.500885	-15.663354	-630.566956
7119.108358	-222.384567	-17.299826	-622.209229
7119.111683	-231.092926	-19.228521	-612.974854
7119.115017	-238.983063	-20.631210	-603.682068
7119.118350	-245.762711	-22.326126	-592.986511
7119.121681	-253.652832	-23.904150	-583.109253
7119.125013	-260.958496	-25.365284	-573.465820
7119.128347	-267.855042	-26.534191	-563.179443
7119.132569	-279.777893	-29.398012	-541.963745
7119.135885	-285.271759	-30.683809	-530.508484
7119.139312	-291.174744	-31.502045	-520.163635
7119.142656	-295.616608	-32.612507	-509.526581
7119.145524	-300.701355	-33.956753	-498.188202
7119.148776	-304.850952	-34.716541	-487.258911
7119.152143	-309.059021	-34.950321	-474.576294
7119.155437	-311.864410	-36.060783	-462.887207
7119.158773	-315.955597	-37.580360	-451.957947
7119.162101	-317.592041	-38.106369	-441.028656
7119.165012	-320.455872	-39.099941	-429.222687
7119.168344	-322.618347	-39.625950	-418.293396
7119.171675	-324.547058	-40.794857	-407.247223
7119.175008	-326.008179	-40.502628	-396.201050
7119.178343	-327.352417	-41.788429	-384.921112
7119.181679	-328.053772	-41.905319	-373.524261
7119.185006	-328.345978	-42.080654	-363.237885
7119.188345	-328.404449	-42.665108	-352.483917
7119.191677	-328.521332	-43.074226	-342.781982
7119.195049	-329.047333	-43.483345	-332.554047
7119.198345	-328.755127	-43.834015	-323.085907
7119.201678	-328.053772	-43.892460	-313.617767
7119.205008	-326.943298	-44.360023	-304.383392
7119.208343	-326.300415	-44.360023	-295.265930
7119.211678	-325.540619	-45.061367	-286.440674
7119.215007	-324.371704	-45.002922	-278.082977
7119.218344	-322.969025	-44.944477	-269.374634
7119.221672	-321.274109	-44.944477	-261.542969
7119.225009	-319.403870	-45.938049	-253.068375
7119.228337	-317.416718	-45.470486	-244.886047
7119.231668	-315.604889	-45.295151	-238.340164
7119.235006	-313.793121	-45.236702	-230.976028
7119.238370	-311.572174	-45.061367	-223.378128
7119.243019	-307.305664	-45.704266	-210.344833
7119.245930	-305.610748	-45.587376	-203.331375
7119.249299	-303.272949	-45.412041	-197.136169
7119.252569	-300.818237	-45.353596	-190.531845
7119.255859	-298.831085	-44.944477	-184.044418
7119.259183	-296.084167	-45.178257	-177.966110
7119.262088	-293.512573	-44.944477	-171.887787
7119.265424	-290.824066	-44.827587	-166.452377
7119.268761	-289.012268	-44.652252	-160.607834
7119.272091	-286.616028	-44.067799	-155.055527
7119.275000	-283.752197	-43.892460	-149.737000
7119.278330	-281.355927	-43.308006	-144.535370
7119.281680	-278.316772	-43.600235	-139.918167
7119.285002	-275.862061	-43.775570	-134.132080
7119.288336	-273.524261	-42.840446	-129.865570
7119.291671	-270.777313	-42.723553	-125.073051
7119.294995	-268.556396	-42.665108	-120.163643
7119.298328	-265.400360	-42.665108	-115.897133
7119.301672	-263.237885	-42.489773	-111.864410
7119.304993	-260.490936	-42.372883	-106.545876
7119.308332	-258.211578	-42.255993	-102.863823
7119.311667	-255.698425	-41.496201	-99.240204
7119.315000	-252.776154	-41.145531	-94.623032
7119.318331	-251.081223	-40.561073	-91.174751
7119.321660	-247.983643	-40.853302	-87.901810
7119.325005	-245.412033	-40.210403	-84.102859
7119.328329	-243.717117	-40.210403	-80.713036
7119.331664	-240.736420	-40.151958	-77.440094
7119.334995	-239.099930	-39.450611	-74.517830
7119.338329	-236.586792	-39.801285	-71.361771
7119.341662	-235.534760	-39.392166	-68.205727
7119.344991	-232.963181	-39.216831	-66.218582
7119.348324	-230.917603	-38.457043	-63.588543
7119.351654	-228.579788	-37.989479	-60.257160
7119.355916	-224.663956	-38.223259	-56.808884
7119.359190	-222.501465	-37.814144	-55.172413
7119.362512	-221.098785	-37.463470	-52.776154
7119.365838	-219.286972	-37.405025	-50.204556
7119.369195	-217.475159	-37.054356	-48.977203
7119.372084	-215.429565	-37.054356	-46.697838
7119.375416	-214.143784	-36.879017	-45.178257
7119.378776	-212.682648	-36.528347	-43.074226
7119.382100	-210.637039	-36.469902	-41.437756
7119.385466	-209.351257	-36.353008	-39.275276
7119.388321	-207.422562	-36.411457	-37.814144
7119.391652	-206.312103	-36.703682	-36.937462
7119.394986	-204.967850	-36.586792	-34.950321
7119.398351	-203.214508	-36.119228	-33.138515
7119.401655	-201.753357	-35.710110	-31.560490
7119.404987	-200.350662	-36.060783	-30.216248
7119.408317	-199.357101	-35.885448	-28.638224
7119.411663	-198.246628	-36.002338	-27.352425
7119.414987	-196.727066	-35.710110	-26.592636
7119.418321	-195.265930	-35.710110	-25.774401
7119.421653	-193.746353	-35.534775	-24.488602
7119.424987	-193.103439	-35.242550	-22.969025
7119.428314	-191.817657	-35.184105	-22.735243
7119.431649	-190.122742	-35.125656	-20.163647
7119.434984	-188.895386	-34.424313	-19.345411
7119.438316	-187.434250	-34.424313	-18.468731
7119.441645	-186.499115	-34.599651	-17.650497
7119.444978	-185.739334	-34.190533	-16.656927
7119.448317	-184.395081	-33.781414	-16.130919
7119.451731	-183.518402	-34.073643	-14.845119
7119.454985	-182.641739	-34.073643	-13.559322
7119.458315	-181.881943	-33.839859	-13.091760
7119.461650	-181.472824	-33.722969	-12.273524
7119.464980	-179.544128	-33.080070	-11.338399
7119.469162	-177.615433	-33.664524	-9.585038
7119.472527	-177.498550	-33.547634	-9.292811
7119.475858	-176.797195	-33.489189	-9.117476
7119.479185	-176.446518	-33.196960	-7.773232
7119.482568	-176.271194	-33.313854	-8.182350
7119.485431	-175.277618	-33.372299	-7.188778
7119.488810	-174.810059	-33.138515	-6.779661
7119.492070	-174.284042	-33.021626	-7.422560
7119.495405	-173.933380	-33.489189	-7.188778
7119.498308	-173.173584	-32.963181	-7.247224
7119.501643	-173.173584	-33.372299	-6.721216
7119.504979	-172.998245	-33.080070	-6.721216
7119.508312	-172.530685	-33.489189	-5.786090
7119.511642	-172.764465	-33.489189	-5.961426
7119.514988	-172.706024	-33.372299	-6.428989
7119.518312	-172.647568	-33.839859	-5.318527
7119.521647	-172.121567	-33.664524	-5.610754
7119.524978	-172.238464	-33.898308	-5.260082
7119.528309	-172.180008	-34.073643	-5.902981
7119.531636	-172.296906	-33.489189	-5.844535
7119.534976	-172.004669	-34.073643	-5.201637
7119.538308	-171.712448	-33.839859	-5.786090
7119.541644	-172.355347	-34.073643	-6.136762
7119.545019	-172.296906	-34.248978	-6.662770
7119.548308	-172.472244	-33.839859	-6.545880
7119.551659	-172.530685	-34.424313	-6.662770
7119.554969	-172.413788	-34.015198	-6.604325
7119.558305	-172.413788	-34.190533	-5.961426
7119.561639	-172.647568	-34.716541	-5.961426
7119.564971	-173.290482	-34.599651	-6.838106
7119.568306	-173.348923	-34.716541	-6.662770
7119.571642	-173.348923	-35.008766	-7.422560
7119.574965	-173.582703	-34.658096	-7.305669
7119.579663	-174.050262	-34.716541	-8.065459
7119.582511	-174.985382	-34.950321	-7.948568
7119.585947	-174.459381	-35.476330	-7.948568
7119.589249	-175.511398	-35.067211	-8.357686
7119.592487	-175.569839	-35.827003	-8.591467
7119.595415	-176.329636	-35.710110	-8.883694
7119.598734	-176.037415	-35.943893	-9.117476
7119.602056	-176.972534	-35.885448	-9.409702
7119.605400	-177.907654	-36.236118	-10.929281
7119.608729	-179.193451	-36.002338	-10.637054
7119.611633	-179.485672	-36.119228	-12.039742
7119.614961	-180.187027	-35.885448	-12.741087
7119.618301	-181.297485	-36.411457	-13.442431
7119.621635	-181.940384	-37.229691	-13.267096
7119.624965	-182.992401	-37.346581	-14.669784
7119.628300	-183.927521	-37.288136	-16.072474
7119.631669	-185.388657	-37.229691	-17.124489
7119.634964	-185.622437	-37.755699	-17.241379
7119.638326	-186.849792	-38.223259	-18.702513
7119.641631	-187.960251	-38.164814	-19.696083
7119.644979	-189.830505	-38.515488	-20.864992
7119.648297	-189.830505	-38.924606	-21.449446
7119.651628	-191.700760	-39.216831	-22.209234
7119.654968	-192.577438	-39.392166	-25.131502
7119.658293	-194.213913	-39.742840	-26.943308
7119.661625	-196.084167	-40.210403	-27.001753
7119.664966	-196.902390	-40.561073	-29.105785
7119.668294	-198.363525	-41.203976	-29.807129
7119.671624	-199.532440	-41.905319	-31.385153
7119.674958	-201.110458	-41.963764	-33.313854
7119.678293	-202.220917	-42.372883	-34.774986
7119.681647	-204.032730	-42.489773	-36.353008
7119.684963	-205.143188	-42.548218	-38.223259
7119.688292	-206.779663	-43.132671	-38.983051
7119.692548	-210.111053	-43.775570	-42.957336
7119.695813	-212.215088	-44.886032	-44.476913
7119.699140	-213.851547	-45.470486	-46.347164
7119.702473	-215.195801	-45.470486	-48.451199
7119.705848	-217.066055	-45.412041	-50.204556
7119.708718	-218.760971	-46.347164	-52.250145
7119.712051	-220.105194	-47.048508	-54.061951
7119.715402	-222.092346	-47.399181	-55.289303
7119.718743	-224.079483	-47.516071	-58.503799
7119.722106	-225.774414	-48.100525	-60.374050
7119.724983	-227.586197	-48.509644	-63.822330
7119.728289	-229.690247	-49.444767	-65.575691
7119.731624	-231.735825	-49.444767	-68.439507
7119.734956	-233.839874	-50.087666	-70.601990
7119.738284	-235.943893	-50.438339	-73.874924
7119.741619	-237.697250	-51.081242	-75.978958
7119.744955	-240.151947	-51.373463	-79.076561
7119.748288	-241.846878	-51.899475	-82.583282
7119.751624	-243.950912	-52.600819	-86.732903
7119.754957	-245.996506	-53.535946	-90.064285
7119.758287	-248.684982	-53.243713	-93.629456
7119.761618	-251.198120	-54.003506	-97.486847
7119.764957	-253.594391	-54.997082	-101.694916
