time (s)	magX	magY	magZ
6818.565078	177.147858	36.645237	-18.585623
6818.568407	174.459381	37.229691	-15.897136
6818.571741	172.706024	36.528347	-13.617767
6818.575071	170.426651	36.002338	-12.682642
6818.578403	168.381058	35.417885	-10.637054
6818.581739	166.452377	35.593220	-9.175920
6818.585070	164.348343	34.891876	-7.364114
6818.589704	160.257156	34.365868	-3.798948
6818.592645	157.860901	34.015198	-3.039158
6818.595943	156.165985	34.015198	-0.935126
6818.599348	154.880188	33.664524	0.292227
6818.602667	153.594391	33.547634	1.987142
6818.605549	151.490356	33.255405	3.506721
6818.608828	149.444763	32.261837	5.318527
6818.612166	148.217422	31.969610	5.786090
6818.615503	147.165405	31.735825	6.312099
6818.618825	145.528931	31.911165	8.416131
6818.621733	143.366455	31.618935	9.701928
6818.625064	142.197556	31.502045	10.520164
6818.628401	140.736420	31.268263	10.695500
6818.631739	139.509064	30.859146	12.390414
6818.635066	138.340149	30.508474	13.500876
6818.638396	136.586792	30.216248	13.734658
6818.641735	135.943893	30.216248	15.078900
6818.645067	134.365875	29.748684	16.014027
6818.648407	133.021622	29.690239	16.540035
6818.651734	131.443604	29.631794	17.241379
6818.655071	130.566925	29.222675	17.592052
6818.658398	129.456467	28.462887	18.936295
6818.661783	127.586212	28.404442	18.994740
6818.665067	127.469315	28.638224	18.994740
6818.668395	126.008179	28.170660	20.338982
6818.671731	125.306831	28.579777	21.098774
6818.675065	124.196373	28.345997	22.384571
6818.678397	123.670364	28.170660	22.209234
6818.681731	122.326126	27.878433	23.144360
6818.685059	121.624779	27.995323	24.079485
6818.688400	120.748100	28.170660	23.962595
6818.691736	119.812981	27.586206	25.014612
6818.695061	118.760956	26.884863	25.365284
6818.699791	117.475166	27.469316	25.131502
6818.702649	116.540039	26.884863	25.482174
6818.705989	115.721802	26.651081	26.008183
6818.709315	115.254234	27.118645	26.826418
6818.712574	114.903572	26.943308	26.534191
6818.715478	114.786674	26.943308	26.767973
6818.718815	114.085327	26.826418	27.644651
6818.722153	114.202225	27.177090	27.878433
6818.725486	113.267097	26.943308	28.345997
6818.728824	113.617767	27.001753	27.995323
6818.731725	112.857971	26.884863	28.462887
6818.735084	112.507309	26.709526	28.345997
6818.738389	112.331978	26.534191	28.872004
6818.741731	111.922852	26.534191	28.170660
6818.745059	111.513733	26.651081	28.579777
6818.748393	111.747513	26.651081	29.222675
6818.751725	111.513733	26.826418	29.222675
6818.755058	111.221504	26.651081	29.690239
6818.758381	110.812393	26.651081	29.456457
6818.761719	110.812393	27.001753	29.807129
6818.765058	110.286377	26.767973	29.281122
6818.768387	110.169495	26.709526	29.047340
6818.771722	110.227943	26.358854	29.047340
6818.775052	109.760376	26.709526	30.040911
6818.778400	109.818817	26.651081	29.398012
6818.781724	110.052597	27.235535	30.566919
6818.785055	109.935715	27.118645	29.807129
6818.788385	110.520157	27.001753	29.924021
6818.791723	110.344826	27.352425	29.573349
6818.795049	110.695503	27.527761	29.047340
6818.798385	111.046173	27.293980	29.748684
6818.801717	110.987724	27.761543	29.398012
6818.805050	111.221504	27.936878	29.514902
6818.808420	110.344826	28.287550	29.281122
6818.812985	111.922852	28.345997	28.521332
6818.815898	111.396851	27.936878	27.819988
6818.819238	112.390411	28.988895	28.112215
6818.822592	112.682640	29.047340	28.404442
6818.825923	112.916420	29.047340	28.229105
6818.828848	113.033318	29.690239	27.293980
6818.832167	113.851547	29.514902	27.936878
6818.835537	114.377556	29.690239	27.644651
6818.838830	115.254234	29.924021	27.235535
6818.842141	115.195786	29.982466	27.644651
6818.845044	116.306259	30.800701	26.358854
6818.848382	116.890701	30.917591	26.300409
6818.851744	117.708946	31.209818	26.534191
6818.855044	117.416718	31.151373	26.008183
6818.858380	118.410286	31.969610	25.073057
6818.861720	118.936302	31.677380	24.488602
6818.865049	120.105209	32.495617	23.962595
6818.868380	121.507896	32.787846	23.378141
6818.871707	121.858559	32.378727	23.319696
6818.875043	122.852135	32.554062	22.735243
6818.878373	124.079491	33.606079	20.923437
6818.881734	125.131500	33.956753	20.338982
6818.885043	125.774399	34.015198	19.228521
6818.888389	126.943298	34.365868	18.936295
6818.891707	127.703094	35.067211	18.468731
6818.895064	128.638214	35.242550	17.007599
6818.898371	130.333130	35.710110	16.656927
6818.901708	131.092926	36.411457	16.130919
6818.905041	131.794281	36.703682	15.721800
6818.908374	133.372299	36.995907	14.669784
6818.911703	134.424316	37.463470	13.968439
6818.915040	135.476334	38.164814	11.981297
6818.918369	137.521927	38.281708	12.039742
6818.921703	138.398605	39.450611	11.864407
6818.925928	140.970200	40.736408	9.877264
6818.929252	142.139099	41.028641	7.948568
6818.932646	144.009354	41.613094	7.013443
6818.935965	145.119812	41.846874	5.610754
6818.939226	146.756287	42.139099	4.734074
6818.942126	147.866745	43.366451	3.097604
6818.945461	149.444763	44.710697	2.630041
6818.948798	151.315018	44.710697	0.292227
6818.952131	152.951492	45.587376	-0.876680
6818.955456	154.354172	46.230274	-2.571596
6818.958371	156.516663	47.106953	-4.091175
6818.961721	157.744019	47.691406	-5.376973
6818.965033	160.374039	48.977203	-7.188778
6818.968366	162.244293	50.029224	-8.591467
6818.971706	163.822327	50.087666	-10.695500
6818.975031	165.575684	51.315022	-12.799533
6818.978364	167.971939	51.899475	-14.786674
6818.981712	169.725311	52.776154	-16.949154
6818.985030	172.004669	53.711277	-18.819405
6818.988369	173.758041	53.886616	-20.864992
6818.991694	176.504974	55.581535	-23.728813
6818.995029	178.667450	56.341320	-25.715956
6818.998360	181.063705	57.451786	-28.813559
6819.001700	184.628876	58.036240	-30.917591
6819.005064	187.142029	59.614258	-33.489189
6819.008363	188.836929	60.140270	-35.651665
6819.011693	191.583878	62.010521	-39.333721
6819.015027	194.213913	62.536526	-42.548218
6819.018362	196.727066	63.530098	-45.470486
6819.021695	199.532440	64.932785	-49.035652
6819.025029	202.104050	66.101692	-51.957916
6819.028358	204.675629	67.913506	-55.873756
6819.031697	207.305664	68.614845	-59.205143
6819.035958	213.091751	71.420219	-67.036819
6819.039324	216.072464	72.881355	-70.601990
6819.042567	218.760971	73.991814	-75.569847
6819.045879	221.683212	75.102280	-78.492111
6819.049245	224.780823	76.388077	-82.875511
6819.052113	227.060196	78.082993	-88.135597
6819.055453	230.508469	79.427238	-92.752777
6819.058807	233.255417	80.888367	-97.369957
6819.062144	235.943893	82.291061	-101.753365
6819.065493	238.749268	83.985970	-106.779655
6819.068401	241.262405	85.154877	-112.624191
6819.071688	244.535355	87.317360	-117.475166
6819.075023	247.691422	88.778488	-124.137924
6819.078356	250.204559	90.707191	-130.450027
6819.081686	252.483917	92.168327	-135.768555
6819.085023	255.464645	93.454124	-141.613083
6819.088353	258.562256	95.265923	-148.626526
6819.091720	261.133850	97.019287	-155.932205
6819.095024	263.880768	98.772644	-162.770309
6819.098356	267.153717	100.935127	-170.017532
6819.101684	269.491516	102.630043	-178.082993
6819.105022	271.770874	104.032730	-185.797775
6819.108359	274.225586	106.078316	-193.454117
6819.111686	276.738739	107.714783	-201.519592
6819.115014	279.427246	109.760376	-209.935715
6819.118350	281.239044	111.630630	-218.468735
6819.121690	283.693756	113.968445	-227.352432
6819.125016	285.680878	115.429565	-236.411453
6819.128353	286.732910	117.358269	-245.645828
6819.131685	289.187592	119.871429	-255.289322
6819.135091	290.064301	121.507896	-264.640564
6819.138350	291.583862	123.670364	-275.102295
6819.141685	293.278778	125.189949	-286.090027
6819.146313	294.389252	128.053772	-308.065460
6819.149188	294.798370	129.690247	-319.286957
6819.152555	295.499695	131.560486	-330.391571
6819.155897	295.324371	132.670944	-342.080658
6819.159281	294.564575	135.125656	-353.886597
6819.162127	293.980133	136.411453	-365.809479
6819.165467	292.460571	137.755707	-378.316772
6819.168772	291.700775	139.450607	-389.888947
6819.172108	289.830505	140.677963	-402.162445
6819.175439	287.142029	142.022202	-415.429596
6819.178384	284.745758	142.898895	-427.410889
6819.181681	281.998840	144.243134	-440.794861
6819.185012	278.667450	145.061356	-452.834595
6819.188345	274.985382	145.821152	-465.225037
6819.191683	270.894226	146.464066	-478.433655
6819.195007	265.400360	148.042084	-492.109863
6819.198339	261.250732	148.509644	-504.792511
6819.201679	255.113953	149.620102	-516.540039
6819.205012	249.035645	149.094086	-529.047363
6819.208346	242.548233	149.210983	-541.846924
6819.211676	236.177689	149.795441	-553.302124
6819.215009	228.755112	149.970779	-564.699036
6819.218338	220.572754	149.678558	-576.212769
6819.221707	212.273529	149.327881	-588.369385
6819.225005	203.214508	149.035660	-599.123352
6819.228346	193.454117	148.275864	-609.877258
6819.231678	183.927521	147.808304	-620.397400
6819.235012	173.115128	147.106964	-630.625366
6819.238343	161.952072	145.821152	-641.028625
6819.241675	150.847458	144.710693	-650.029236
6819.245004	138.457047	143.541794	-658.737549
6819.248344	126.241959	141.905319	-667.387512
6819.251669	113.500885	140.385742	-674.517822
6819.255003	100.233780	137.697250	-681.648132
6819.259689	73.290474	132.554062	-694.856812
6819.262606	58.445351	130.508469	-700.058472
6819.265941	44.360023	127.644661	-704.032715
6819.269263	30.566919	125.423729	-708.065491
6819.272521	15.488018	121.624779	-711.338379
6819.275434	0.876680	117.533600	-714.669800
6819.278755	-14.494448	114.202225	-715.312683
6819.282114	-29.924021	111.338402	-716.715393
6819.285429	-44.593803	106.545876	-716.890747
6819.288759	-60.666275	103.448273	-716.715393
6819.291664	-75.628288	99.064873	-715.020447
6819.295004	-90.473404	95.090591	-712.565735
6819.298335	-104.500290	90.414963	-709.818848
6819.301663	-119.228516	86.090004	-706.545898
6819.304997	-133.313843	81.940392	-701.870239
6819.308332	-147.282288	78.082993	-696.902405
6819.311663	-160.198715	73.524254	-691.057861
6819.315001	-173.758041	68.322617	-684.804199
6819.318338	-186.440689	64.582115	-677.907654
6819.321668	-198.772644	59.555817	-670.894165
6819.325033	-210.987732	55.639977	-662.361206
6819.328335	-222.735245	51.315022	-653.594421
6819.331663	-234.248978	47.808300	-644.301575
6819.334991	-243.717117	43.074226	-634.307434
6819.338346	-253.828171	39.275276	-623.495056
6819.341665	-263.354767	35.242550	-613.851562
6819.344992	-272.589142	31.560490	-603.857361
6819.348334	-281.472839	27.819988	-592.811218
6819.351660	-289.421387	23.787258	-580.771484
6819.354992	-297.077728	20.222092	-568.614868
6819.358333	-304.032745	16.773817	-556.341309
6819.361662	-311.338409	13.150205	-544.827576
6819.364992	-317.182922	10.169491	-532.495605
6819.368340	-321.917023	6.954997	-519.520752
6819.372590	-332.378723	-0.000000	-493.337250
6819.375916	-336.177673	-2.688486	-480.829895
6819.379172	-340.151947	-5.902981	-468.439545
6819.382510	-342.840424	-8.182350	-455.464661
6819.385833	-346.113403	-10.578609	-442.957367
6819.388748	-348.392761	-13.676212	-429.982483
6819.392079	-350.204559	-16.072474	-416.423126
6819.395438	-351.373444	-18.118059	-404.441833
6819.398768	-352.250153	-20.455875	-391.934540
6819.401658	-353.594391	-22.384571	-379.076538
6819.405020	-353.945068	-23.962595	-367.679718
6819.408382	-353.594391	-26.241964	-355.406189
6819.411664	-353.769745	-28.112215	-343.658691
6819.414990	-353.302155	-29.807129	-330.859131
6819.418326	-351.957916	-31.326708	-319.520752
6819.421651	-351.315033	-33.430744	-308.357697
6819.424989	-349.444763	-34.541206	-297.486847
6819.428322	-347.866760	-35.534775	-287.142029
6819.431651	-346.347168	-36.879017	-275.920502
6819.434985	-343.834015	-38.106369	-266.277039
6819.438323	-341.379303	-39.392166	-255.932205
6819.441654	-339.742859	-40.268848	-245.119812
6819.444986	-336.586792	-40.970196	-236.294556
6819.448357	-334.132080	-41.671539	-227.118637
6819.451654	-331.502045	-42.197548	-217.416718
6819.454985	-328.755127	-42.489773	-209.117477
6819.458315	-325.891266	-43.074226	-200.467560
6819.461651	-322.501465	-44.301579	-192.752777
6819.464991	-319.462311	-44.418468	-184.979553
6819.468320	-316.130920	-44.476913	-175.862076
6819.471650	-312.799530	-45.061367	-169.491531
6819.474986	-309.351257	-45.119812	-161.367615
6819.478325	-305.961426	-45.412041	-154.295731
6819.481658	-302.396240	-45.879601	-147.925186
6819.485848	-295.791931	-45.295151	-135.300995
6819.489166	-292.460571	-45.762711	-128.755112
6819.492526	-288.953827	-45.938049	-123.085915
6819.495851	-285.447083	-46.054939	-117.884277
6819.499218	-281.881958	-46.054939	-111.572182
6819.502103	-278.316772	-45.938049	-106.078316
6819.505435	-275.043854	-45.879601	-101.402687
6819.508785	-271.770874	-45.645821	-95.733490
6819.512124	-269.140869	-45.061367	-91.350090
6819.514978	-265.341888	-45.295151	-86.849800
6819.518318	-262.010529	-44.944477	-81.998833
6819.521646	-258.386902	-44.418468	-77.790764
6819.524983	-254.821747	-44.593803	-73.465813
6819.528312	-251.665680	-44.184689	-69.316193
6819.531648	-248.392746	-43.892460	-65.283463
6819.535017	-245.938034	-43.892460	-60.315601
6819.538314	-242.431335	-43.541790	-56.691994
6819.541641	-238.807724	-43.483345	-53.360603
6819.544976	-235.768555	-43.132671	-50.438339
6819.548311	-233.196945	-43.074226	-46.347164
6819.551638	-229.865570	-43.191116	-42.840446
6819.554978	-226.884872	-42.489773	-39.392166
6819.558311	-224.897720	-42.372883	-36.411457
6819.561648	-221.975449	-42.197548	-33.430744
6819.564975	-218.468735	-41.671539	-30.859146
6819.568303	-216.072464	-41.963764	-28.170660
6819.571636	-213.793106	-41.496201	-25.949738
6819.574979	-211.104614	-41.028641	-23.144360
6819.578341	-209.117477	-40.911751	-21.157219
6819.581640	-206.078308	-40.853302	-18.994740
6819.584989	-203.798935	-40.561073	-16.832262
6819.588305	-201.578018	-40.268848	-14.377557
6819.591638	-199.006424	-40.093510	-12.331969
6819.594970	-196.259491	-39.859730	-10.637054
6819.599154	-191.700760	-39.625950	-6.721216
6819.602530	-189.538269	-39.625950	-4.500292
6819.605837	-187.901810	-39.158386	-3.214494
6819.609232	-185.914673	-38.573933	-1.578025
6819.612078	-183.869095	-38.924606	0.233781
6819.615419	-182.232620	-38.515488	2.279369
6819.618728	-180.420807	-38.223259	3.506721
6819.622088	-178.901230	-37.931034	5.026300
6819.625396	-176.738754	-37.346581	6.019871
6819.628306	-175.277618	-37.521915	7.071887
6819.631639	-173.874924	-37.405025	8.708358
6819.634967	-171.887787	-36.469902	9.292811
6819.638300	-170.835770	-36.879017	10.520164
6819.641637	-168.907074	-37.054356	11.630626
6819.644964	-167.387497	-36.995907	12.916424
6819.648300	-165.517242	-36.294563	14.260666
6819.651633	-164.640564	-35.943893	15.312682
6819.654969	-162.653427	-36.002338	16.423145
6819.658296	-161.659851	-36.177673	16.715372
6819.661639	-160.666275	-35.242550	17.708942
6819.664971	-159.672699	-35.300995	18.410286
6819.668294	-158.153122	-35.827003	18.527178
6819.671630	-156.516663	-34.833431	20.105202
6819.674964	-155.990646	-35.067211	21.624781
6819.678331	-154.646408	-34.833431	22.092344
6819.681625	-153.419052	-35.125656	22.735243
6819.684969	-152.250153	-34.950321	23.202805
6819.688292	-151.373474	-34.541206	23.904150
6819.691626	-150.438339	-34.365868	24.254822
6819.694964	-149.561661	-33.956753	25.482174
6819.698292	-149.035660	-34.307423	26.534191
6819.701623	-148.217422	-33.956753	26.300409
6819.704963	-146.464066	-33.839859	27.410872
6819.709178	-144.827576	-33.781414	28.579777
6819.712494	-144.184692	-33.956753	28.462887
6819.715882	-143.541794	-33.313854	28.345997
6819.719216	-143.191116	-33.430744	29.807129
6819.722545	-142.957336	-33.606079	29.924021
6819.725382	-141.788422	-34.190533	29.573349
6819.728718	-141.028641	-33.547634	29.514902
6819.732043	-140.210403	-33.138515	30.625364
6819.735381	-140.035065	-33.722969	31.443600
6819.738715	-139.859741	-33.781414	30.976036
6819.741618	-139.684387	-33.664524	31.209818
6819.744961	-139.158386	-33.781414	30.917591
6819.748286	-138.632385	-33.255405	30.917591
6819.751641	-138.515488	-33.021626	32.261837
6819.754954	-137.989487	-33.372299	31.911165
6819.758291	-137.580353	-33.722969	32.028053
6819.761621	-137.872589	-33.196960	32.495617
6819.764956	-136.937469	-33.898308	32.028053
6819.768298	-136.411453	-33.956753	31.911165
6819.771617	-137.054367	-34.248978	32.378727
6819.774959	-136.879013	-33.956753	32.320282
6819.778283	-137.463470	-33.956753	31.735825
6819.781620	-137.229691	-34.365868	32.203392
6819.784956	-136.937469	-33.489189	31.852718
6819.788285	-136.703674	-33.489189	31.852718
6819.791615	-136.703674	-34.015198	31.385153
6819.794987	-136.879013	-33.839859	32.144947
6819.798286	-137.580353	-34.190533	32.028053
6819.801616	-137.054367	-34.307423	32.261837
6819.804955	-137.405029	-34.658096	32.086502
6819.808286	-137.405029	-34.950321	32.261837
6819.811614	-137.697250	-34.833431	31.268263
6819.814948	-137.580353	-35.067211	31.502045
6819.818287	-137.931030	-35.534775	32.729401
6819.822524	-138.340149	-35.593220	32.203392
6819.825805	-138.515488	-35.768555	31.911165
6819.829119	-139.275284	-36.177673	31.560490
6819.832474	-139.801285	-35.651665	30.917591
6819.835821	-140.151947	-36.060783	30.450027
6819.838763	-140.911743	-36.119228	31.092926
6819.842061	-141.028641	-36.528347	30.099356
6819.845401	-141.788422	-36.177673	30.099356
6819.848730	-142.606659	-37.346581	29.339567
6819.851623	-142.898895	-36.645237	28.521332
6819.854948	-143.775574	-37.229691	28.229105
6819.858278	-144.301575	-37.814144	28.404442
6819.861608	-144.944473	-37.814144	27.410872
6819.864941	-145.645828	-38.398598	27.586206
6819.868279	-146.522491	-38.573933	27.410872
6819.871611	-147.340744	-39.099941	26.826418
6819.874947	-148.392746	-39.509056	25.599066
6819.878275	-149.327881	-39.976620	25.248394
6819.881642	-149.795441	-40.151958	24.430157
6819.884938	-151.373474	-40.794857	23.611923
6819.888274	-151.957916	-41.203976	22.793688
6819.891607	-153.009933	-41.379311	22.501461
6819.894938	-154.237289	-41.262421	22.267679
6819.898270	-155.230850	-42.314438	20.338982
6819.901603	-157.218002	-42.372883	20.514320
6819.904941	-157.977798	-42.782001	19.462303
6819.908276	-158.796021	-43.191116	18.760958
6819.911606	-160.549393	-43.658680	17.182934
6819.914951	-161.426071	-44.418468	16.949154
6819.918272	-162.478073	-44.418468	15.371127
6819.921609	-163.939209	-45.236702	14.143775
6819.924969	-165.867920	-45.996494	12.799533
6819.928274	-167.445938	-45.879601	11.513735
6819.931609	-168.497955	-46.756283	10.637054
6819.935797	-171.653992	-47.516071	8.474577
6819.939140	-173.232025	-48.392754	7.656341
6819.942477	-175.336060	-49.094097	5.493863
6819.945872	-176.563416	-50.029224	4.266511
6819.948721	-178.550552	-50.204556	3.097604
6819.952048	-180.713028	-50.438339	2.279369
6819.955375	-182.583282	-51.256573	-0.642899
6819.958691	-184.687317	-52.191700	-1.928697
6819.962031	-186.440689	-52.425480	-4.149620
6819.964935	-188.077148	-53.126823	-5.552309
6819.968291	-190.064285	-53.886616	-7.539450
6819.971605	-192.168320	-54.997082	-8.766803
6819.974938	-194.389252	-55.464642	-10.637054
6819.978268	-196.727066	-56.808884	-13.150205
6819.981603	-198.889542	-57.393337	-15.020455
6819.984930	-200.935120	-58.386909	-17.416716
6819.988265	-203.798935	-59.029804	-19.170076
6819.991593	-205.493851	-60.257160	-22.326126
6819.994931	-208.240799	-60.783165	-24.897720
6819.998268	-210.695511	-61.835182	-27.060200
6820.001599	-212.857986	-63.471649	-29.456457
6820.004934	-216.656921	-64.056107	-31.794271
6820.008307	-218.994736	-65.108124	-34.716541
6820.011609	-221.332550	-66.393921	-37.346581
6820.014932	-224.430161	-67.387489	-40.210403
