time (s)	magX	magY	magZ
6543.265945	200.116898	7.130333	-32.554062
6543.269308	197.954422	7.130333	-30.566919
6543.272606	195.967270	6.545880	-27.469316
6543.275941	194.097015	7.071887	-26.183519
6543.279274	191.642319	7.013443	-24.663939
6543.282607	190.122742	6.721216	-22.384571
6543.285936	187.901810	6.662770	-21.098774
6543.289269	186.499115	6.019871	-18.877850
6543.292609	184.570435	6.545880	-17.767387
6543.295939	182.641739	6.370543	-15.488018
6543.299270	180.654587	6.487434	-13.909994
6543.302601	178.258331	6.312099	-13.091760
6543.305933	177.206314	6.195207	-12.390414
6543.309273	175.803619	6.428989	-10.403274
6543.312610	173.699600	6.662770	-8.825249
6543.315972	172.004669	6.604325	-7.481005
6543.319266	170.368210	6.195207	-6.838106
6543.322602	168.731735	6.312099	-4.909410
6543.325938	167.855057	6.604325	-3.682057
6543.330562	164.757462	6.838106	-1.344243
6543.333449	163.062531	7.013443	-0.993571
6543.336822	162.478073	6.487434	0.467563
6543.340141	161.309174	6.604325	1.168907
6543.343521	160.374039	6.838106	1.928697
6543.346374	158.971359	7.130333	2.746932
6543.349741	158.211578	7.013443	4.383401
6543.353027	157.276459	7.247224	4.792519
6543.356391	155.698425	7.071887	4.675628
6543.359685	154.587967	6.545880	5.493863
6543.362595	154.003494	7.247224	5.961426
6543.365927	153.185272	7.188778	7.422560
6543.369267	152.133255	7.364114	7.247224
6543.372592	151.198120	7.656341	8.416131
6543.375933	150.379898	7.831677	8.766803
6543.379263	149.620102	7.539450	9.351256
6543.382592	148.860306	7.656341	9.818819
6543.385928	148.568100	7.656341	10.052601
6543.389257	147.866745	7.714787	10.227938
6543.392598	147.399185	7.597896	11.104617
6543.395928	146.697845	7.890122	10.753945
6543.399281	145.938049	7.773232	11.221508
6543.402622	145.762711	7.597896	12.565751
6543.405925	145.295135	7.773232	12.215078
6543.409262	144.944473	7.890122	12.682642
6543.412596	144.067795	7.714787	12.857978
6543.415930	144.418472	8.240795	12.799533
6543.419262	143.132675	7.831677	12.565751
6543.422587	142.840439	7.656341	13.968439
6543.425929	142.197556	7.773232	14.377557
6543.429258	141.788422	8.182350	14.085330
6543.432597	142.197556	7.773232	14.377557
6543.435925	141.145523	7.597896	14.962010
6543.439256	141.788422	7.656341	14.552893
6543.443470	141.613083	7.714787	15.137346
6543.446838	141.087082	7.656341	14.319112
6543.450168	140.619522	7.948568	14.436002
6543.453443	140.151947	7.773232	14.552893
6543.456770	140.561081	7.948568	15.137346
6543.459722	140.385742	8.240795	15.312682
6543.463021	140.677963	8.357686	15.312682
6543.466354	140.561081	8.182350	15.838690
6543.469679	140.853302	8.416131	15.254237
6543.472609	140.736420	8.240795	15.312682
6543.475918	140.794861	8.299240	14.962010
6543.479256	141.262421	8.533022	14.669784
6543.482583	141.437759	8.591467	14.845119
6543.485923	141.729980	8.825249	14.436002
6543.489253	141.496201	9.117476	14.026885
6543.492584	142.139099	9.585038	13.851549
6543.495921	142.314438	9.818819	13.734658
6543.499248	142.898895	10.111046	12.741087
6543.502627	143.658676	10.227938	13.150205
6543.505916	143.775574	10.286383	12.448860
6543.509250	144.360016	10.461719	12.682642
6543.512578	144.710693	10.227938	12.799533
6543.515948	145.412033	10.753945	11.747516
6543.519247	145.938049	11.338399	10.929281
6543.522579	146.522491	11.396844	10.169491
6543.525911	147.223846	11.630626	9.409702
6543.529244	148.275864	10.929281	9.351256
6543.532577	149.561661	11.689071	8.825249
6543.535915	149.737000	11.922852	8.007013
6543.539246	150.496780	12.331969	7.539450
6543.542576	151.665680	11.805962	7.481005
6543.545911	152.074814	12.331969	7.422560
6543.549249	152.951492	12.741087	6.721216
6543.553466	154.704865	12.799533	5.143191
6543.556758	155.873764	12.741087	3.915838
6543.560116	156.691986	13.033314	3.682057
6543.563443	158.094681	13.267096	2.337814
6543.566774	158.971359	13.383986	1.519579
6543.569697	160.140259	14.026885	0.759790
6543.573034	161.601395	13.851549	-0.584454
6543.576374	163.004089	14.436002	-1.110462
6543.579689	164.231445	13.968439	-2.337814
6543.582578	164.932785	13.676212	-2.980713
6543.585910	166.335480	14.377557	-4.500292
6543.589274	167.913498	15.195791	-5.084745
6543.592576	169.257751	15.195791	-6.662770
6543.595905	170.251312	15.429573	-8.065459
6543.599241	172.063126	15.721800	-9.117476
6543.602593	173.348923	16.656927	-10.052601
6543.605903	175.336060	16.189363	-11.455289
6543.609238	176.563416	17.299826	-12.507306
6543.612575	177.673874	17.708942	-13.500876
6543.615907	179.485672	17.066044	-15.078900
6543.619236	181.531265	18.234951	-16.715372
6543.622573	183.576859	18.118059	-18.468731
6543.625904	185.271774	19.228521	-19.462303
6543.629238	187.025131	19.637638	-20.923437
6543.632583	188.895386	20.572765	-23.027470
6543.635903	190.473404	20.689655	-25.189949
6543.639239	192.928116	21.098774	-26.884863
6543.642565	195.265930	21.975452	-29.047340
6543.645947	197.136169	22.092344	-30.800701
6543.649238	199.006424	22.267679	-32.203392
6543.652569	201.402695	23.611923	-36.236118
6543.655899	203.974289	23.611923	-38.573933
6543.659235	206.487442	24.254822	-40.210403
6543.662566	208.708359	24.722383	-42.840446
6543.667195	213.091751	25.482174	-47.691406
6543.670154	215.429565	26.709526	-51.022793
6543.673448	217.884277	26.767973	-53.652836
6543.676832	220.572754	27.352425	-56.925774
6543.680163	223.845703	27.995323	-59.906490
6543.683052	226.125076	27.936878	-63.237869
6543.686317	228.755112	28.988895	-66.569260
6543.689656	231.209824	29.865574	-69.959084
6543.692986	234.482758	30.040911	-73.173584
6543.695891	237.112808	30.800701	-76.680305
6543.699226	239.509064	30.800701	-80.771477
6543.702563	242.197540	31.969610	-85.037987
6543.705894	245.470474	32.612507	-88.135597
6543.709231	248.275848	33.664524	-92.051437
6543.712577	250.730560	33.839859	-96.551720
6543.715892	253.769730	34.891876	-100.292229
6543.719229	256.808868	35.651665	-105.610748
6543.722566	260.198700	35.943893	-109.351257
6543.725892	262.185852	37.054356	-114.085327
6543.729228	265.049683	37.580360	-119.403862
6543.732564	268.556396	38.749268	-125.131500
6543.735894	271.654022	39.041496	-129.748688
6543.739233	274.284058	39.976620	-135.943893
6543.742561	277.966095	41.203976	-141.087082
6543.745889	280.888367	41.905319	-147.165405
6543.749224	284.102875	43.366451	-153.360611
6543.752557	286.265350	44.360023	-159.497375
6543.755921	289.713623	45.061367	-165.926361
6543.759220	292.869659	46.580948	-172.355347
6543.762556	295.733490	47.749855	-179.427231
6543.765889	298.831085	48.334305	-185.563995
6543.769220	301.110474	49.970776	-193.804794
6543.772552	304.266510	51.256573	-201.461121
6543.775891	307.364105	52.133255	-208.240799
6543.780148	312.857971	54.821743	-225.306839
6543.783484	315.078888	55.347752	-233.781403
6543.786810	317.475159	56.925774	-243.074219
6543.790069	320.222107	58.211571	-250.321457
6543.792993	322.676788	59.263588	-260.607849
6543.796323	324.254822	60.783165	-269.842194
6543.799684	326.066650	62.536526	-280.479248
6543.802978	328.404449	63.296318	-290.999420
6543.806312	330.333130	64.406784	-300.584473
6543.809222	331.034485	65.225014	-311.279968
6543.812554	332.495605	66.686150	-321.507874
6543.815884	333.430756	67.913506	-332.904755
6543.819212	334.774994	68.731735	-344.418488
6543.822545	336.060791	70.134422	-355.289307
6543.825888	336.703674	70.601990	-366.043243
6543.829231	336.177673	71.595558	-378.550568
6543.832553	336.820587	72.939804	-390.122711
6543.835885	335.826996	73.874924	-402.746918
6543.839216	335.359436	74.868500	-414.202209
6543.842562	334.190521	75.862068	-425.891296
6543.845879	332.904755	76.680305	-438.866150
6543.849213	332.028046	77.147865	-451.665680
6543.852552	329.339569	78.316772	-463.939240
6543.855879	327.118622	79.193459	-476.212738
6543.859213	324.547058	80.303917	-489.129150
6543.862546	321.449432	80.713036	-502.104034
6543.865882	318.176514	81.706604	-514.962036
6543.869210	314.026886	82.349503	-528.521362
6543.872549	309.526581	83.401520	-541.203979
6543.875882	305.786072	84.102859	-553.652832
6543.879208	299.532440	84.862656	-565.867920
6543.882550	293.395691	85.739334	-578.725891
6543.885875	287.025146	86.090004	-590.882568
6543.890137	272.939789	87.609581	-616.423157
6543.893396	265.166565	88.194038	-628.170654
6543.896760	257.334900	88.836937	-640.151978
6543.900061	247.691422	89.538284	-652.367004
6543.903435	239.041489	89.596725	-663.413208
6543.906311	229.339569	90.531853	-674.284058
6543.909663	218.702515	90.356514	-684.921143
6543.912987	208.357697	90.414963	-694.856812
6543.916333	197.019287	90.590302	-705.376953
6543.919630	184.745758	90.882523	-714.143738
6543.922543	172.764465	90.122734	-723.202820
6543.925873	159.789597	90.122734	-731.794250
6543.929208	146.171829	89.830505	-740.444214
6543.932540	133.080063	89.421394	-746.697876
6543.935875	118.468735	88.486267	-754.120422
6543.939237	104.441849	87.843361	-760.549377
6543.942537	89.713615	86.148453	-765.225037
6543.945872	75.336060	85.622444	-769.608398
6543.949203	60.958504	84.628876	-773.407349
6543.952537	45.412041	83.226189	-777.440063
6543.955870	30.216248	81.531265	-779.368774
6543.959203	15.020455	79.193459	-782.232605
6543.962539	-0.409117	78.199883	-783.459961
6543.965873	-15.838690	76.271187	-782.817078
6543.969211	-31.326708	74.576271	-782.349487
6543.972539	-45.996494	72.647568	-782.057312
6543.975870	-61.367619	70.134422	-781.297485
6543.979222	-76.095848	68.205727	-777.966125
6543.982560	-90.707191	66.393921	-774.926941
6543.985875	-105.143188	63.939220	-771.244934
6543.989203	-119.812981	61.776741	-766.393921
6543.992536	-134.307419	59.497368	-761.016968
6543.995868	-147.749847	56.808884	-756.458252
6543.999201	-161.075394	54.821743	-749.620117
6544.003827	-187.492691	50.555229	-735.359436
6544.006788	-200.292236	48.217415	-727.410889
6544.010083	-212.565750	45.996494	-719.345398
6544.013467	-224.196381	43.892460	-710.344849
6544.016813	-235.885452	41.203976	-700.993591
6544.019650	-246.347168	38.866158	-691.174744
6544.022964	-256.633545	37.112801	-680.070129
6544.026325	-266.803040	34.833431	-669.900635
6544.029622	-276.388062	33.021626	-657.919373
6544.032959	-285.973114	30.917591	-645.996460
6544.035867	-294.389252	28.579777	-633.430725
6544.039200	-303.506744	26.943308	-622.267700
6544.042533	-310.987732	24.663939	-609.526611
6544.045858	-318.585632	22.676798	-596.551697
6544.049199	-325.248383	20.864992	-583.693726
6544.052529	-332.261810	18.936295	-570.543518
6544.055858	-337.171234	17.007599	-557.276428
6544.059196	-342.781982	14.669784	-544.944458
6544.062532	-348.334320	12.857978	-531.092957
6544.065866	-351.957916	10.929281	-517.592041
6544.069221	-356.165985	9.059030	-505.493866
6544.072585	-359.731140	8.123904	-491.350067
6544.075860	-363.237885	5.844535	-478.375183
6544.079196	-365.634125	4.324956	-464.582123
6544.082531	-368.030396	2.396260	-451.139679
6544.085861	-369.316193	0.642899	-439.158386
6544.089193	-371.011108	-1.578025	-425.774384
6544.092522	-372.647583	-2.980713	-414.202209
6544.095859	-373.115143	-4.558738	-401.694916
6544.099194	-373.758026	-5.260082	-390.239624
6544.102526	-373.582703	-6.954997	-378.550568
6544.105855	-373.465790	-8.065459	-367.212158
6544.109191	-372.647583	-9.643483	-355.464661
6544.112540	-372.472229	-10.695500	-344.009338
6544.116728	-370.134430	-12.741087	-322.559906
6544.120122	-368.381073	-14.143775	-312.916412
6544.123453	-367.095245	-15.429573	-302.454712
6544.126776	-365.283478	-16.014027	-293.278778
6544.130039	-363.822327	-16.598480	-282.349518
6544.132948	-361.776733	-17.533606	-272.238434
6544.136295	-358.679138	-18.644068	-264.582123
6544.139614	-356.458221	-19.053185	-254.938629
6544.142948	-354.295715	-19.988310	-245.704269
6544.145851	-352.016357	-20.514320	-237.638809
6544.149183	-349.327881	-21.215664	-229.573349
6544.152518	-346.288727	-21.215664	-221.449448
6544.155862	-343.191132	-21.800117	-213.325546
6544.159180	-340.736420	-22.326126	-205.260086
6544.162514	-337.872589	-22.852133	-197.662186
6544.165851	-334.365875	-22.793688	-190.239624
6544.169205	-331.385162	-22.910578	-182.992401
6544.172527	-328.053772	-22.910578	-176.154297
6544.175852	-324.897705	-23.611923	-168.673294
6544.179182	-321.683228	-23.553476	-161.718292
6544.182513	-318.468750	-23.845703	-155.581528
6544.185847	-315.195801	-23.728813	-148.509644
6544.189183	-311.163055	-23.553476	-142.080658
6544.192515	-308.065460	-23.904150	-135.943893
6544.195847	-304.558716	-24.254822	-130.391586
6544.199210	-301.519592	-24.079485	-124.780830
6544.202515	-298.129761	-23.904150	-119.228516
6544.205850	-294.447693	-23.845703	-114.026878
6544.209184	-290.765656	-24.722383	-108.883690
6544.212512	-287.200470	-24.780828	-104.149612
6544.215849	-284.219757	-24.839275	-98.714203
6544.219182	-281.180603	-24.897720	-94.856812
6544.222513	-277.732330	-24.780828	-90.356514
6544.227200	-271.887787	-24.780828	-81.589714
6544.230168	-268.381073	-24.956165	-78.433662
6544.233352	-265.575684	-25.131502	-73.758034
6544.236694	-262.711853	-24.897720	-70.134422
6544.240030	-260.081818	-25.073057	-66.510811
6544.242963	-256.049072	-25.365284	-63.880772
6544.246267	-254.354172	-24.839275	-60.374050
6544.249600	-251.841019	-25.306839	-57.101112
6544.252960	-248.743408	-25.599066	-54.237289
6544.256295	-246.522491	-25.599066	-51.431911
6544.259178	-243.015793	-25.423729	-49.269432
6544.262511	-241.320877	-25.306839	-46.405609
6544.265848	-238.983063	-24.897720	-44.243134
6544.269171	-236.645248	-24.780828	-41.320866
6544.272507	-234.073639	-25.014612	-40.327293
6544.275839	-232.086487	-25.540621	-37.171246
6544.279170	-229.807144	-25.482174	-34.541206
6544.282510	-227.352432	-25.423729	-32.437172
6544.285862	-224.956161	-24.956165	-29.456457
6544.289167	-222.793701	-25.248394	-28.287550
6544.292509	-221.215652	-25.189949	-26.417299
6544.295842	-218.760971	-24.956165	-24.196377
6544.299174	-216.247803	-25.014612	-22.326126
6544.302501	-214.845108	-24.839275	-20.981882
6544.305835	-212.799530	-24.780828	-19.111629
6544.309173	-210.812408	-24.488602	-16.715372
6544.312498	-209.234360	-24.196377	-14.552893
6544.315847	-207.013443	-24.430157	-14.143775
6544.319172	-205.026291	-24.371712	-12.624197
6544.322502	-203.039169	-24.254822	-11.221508
6544.325834	-201.694916	-24.254822	-9.468147
6544.329207	-199.649323	-24.430157	-7.831677
6544.332502	-198.071304	-24.137930	-6.721216
6544.335831	-196.610168	-24.430157	-5.260082
6544.340472	-193.629456	-23.378141	-2.863822
6544.343351	-192.285217	-23.611923	-1.402689
6544.346740	-190.648743	-23.904150	0.058445
6544.350045	-189.362946	-23.319696	1.227352
6544.353446	-188.077148	-23.845703	2.513150
6544.356273	-186.382233	-23.553476	3.623612
6544.359628	-185.271774	-23.144360	5.143191
6544.362918	-183.927521	-23.495031	5.493863
6544.366254	-183.401520	-23.319696	6.662770
6544.369595	-181.648163	-23.670368	7.305669
6544.372500	-181.063705	-23.495031	8.240795
6544.375831	-179.485672	-23.378141	8.942139
6544.379163	-178.550552	-23.670368	9.526592
6544.382498	-177.907654	-23.436586	9.818819
6544.385825	-177.030975	-23.670368	10.344828
6544.389159	-175.803619	-23.670368	11.513735
6544.392491	-175.102280	-23.787258	12.273524
6544.395829	-174.108704	-24.254822	12.156633
6544.399158	-174.342484	-23.962595	12.565751
6544.402502	-173.407364	-23.845703	12.799533
6544.405826	-172.881348	-23.845703	13.909994
6544.409161	-172.063126	-23.728813	14.260666
6544.412536	-171.829346	-23.728813	14.728229
6544.415837	-171.420212	-23.962595	14.552893
6544.419158	-170.543533	-24.313267	14.903564
6544.422492	-170.309753	-24.196377	15.020455
6544.425827	-169.666870	-23.611923	14.319112
6544.429161	-169.549973	-24.254822	15.838690
6544.432523	-168.614838	-24.021040	15.780245
6544.435824	-168.322617	-24.371712	15.780245
6544.439155	-168.088837	-24.196377	16.540035
6544.442489	-168.088837	-24.021040	16.423145
6544.445831	-167.971939	-24.488602	16.773817
6544.449160	-168.205719	-24.021040	17.708942
6544.453360	-166.861481	-24.605494	17.182934
6544.456756	-166.861481	-24.137930	17.182934
6544.460095	-165.984802	-24.488602	17.299826
6544.463337	-166.919937	-24.722383	17.942724
6544.466668	-166.744583	-24.780828	18.176504
6544.469585	-166.744583	-24.313267	18.410286
6544.472904	-166.452377	-24.137930	18.001169
6544.476261	-166.861481	-24.313267	18.176504
6544.479579	-166.335480	-24.137930	18.001169
6544.482484	-166.744583	-24.371712	18.176504
6544.485820	-166.452377	-24.488602	18.293396
6544.489158	-167.153717	-24.547049	17.708942
6544.492481	-166.978378	-24.605494	17.708942
6544.495811	-167.387497	-25.365284	17.475161
6544.499161	-167.036819	-24.897720	17.416716
6544.502481	-167.855057	-25.423729	17.182934
6544.505820	-168.264175	-25.540621	17.182934
6544.509154	-168.556396	-25.423729	17.767387
6544.512482	-168.731735	-25.715956	16.540035
6544.515813	-169.433075	-25.949738	15.195791
6544.519176	-170.543533	-25.774401	15.078900
6544.522480	-171.069550	-26.417299	15.312682
6544.525811	-171.420212	-26.534191	14.377557
6544.529147	-172.121567	-26.826418	14.436002
6544.532479	-172.530685	-27.177090	13.968439
6544.535813	-173.699600	-26.651081	12.448860
6544.539149	-174.050262	-27.410872	12.331969
6544.542481	-174.985382	-27.352425	11.981297
6544.545810	-176.212738	-27.060200	11.163063
6544.549147	-176.388077	-27.293980	10.403274
6544.552480	-177.849213	-27.761543	10.344828
6544.555828	-179.076569	-27.761543	9.059030
6544.559143	-180.654587	-28.287550	7.831677
6544.562506	-181.122147	-27.936878	7.071887
6544.566663	-183.459961	-28.755114	6.253653
6544.569990	-184.161301	-29.164230	5.844535
6544.573327	-185.680893	-29.398012	4.558738
6544.576686	-186.908249	-29.573349	2.863822
6544.580047	-188.194031	-29.807129	2.863822
6544.582923	-188.953827	-30.216248	1.694915
6544.586264	-190.239624	-30.742254	0.350672
6544.589592	-191.642319	-30.508474	-1.519579
6544.592929	-193.045013	-30.917591	-2.396260
6544.595810	-194.213913	-31.151373	-3.214494
6544.599175	-195.908813	-30.976036	-3.915838
6544.602475	-197.545288	-31.618935	-5.201637
6544.605824	-198.597305	-32.437172	-6.428989
6544.609140	-200.058441	-32.203392	-7.364114
6544.612471	-202.162476	-32.378727	-8.942139
6544.615802	-204.091171	-32.963181	-10.227938
6544.619138	-205.260086	-32.963181	-11.396844
6544.622470	-206.662781	-33.547634	-12.974869
6544.625806	-208.708359	-34.015198	-14.786674
6544.629136	-211.046173	-33.956753	-16.014027
6544.632468	-212.974854	-34.365868	-17.942724
6544.635808	-214.669769	-34.891876	-19.812975
6544.639137	-216.890717	-34.774986	-21.624781
6544.642494	-218.585632	-35.534775	-23.611923
6544.645801	-220.748093	-36.236118	-25.891293
6544.649137	-222.676804	-36.177673	-28.170660
6544.652492	-225.306839	-37.288136	-30.274693
6544.655818	-227.761551	-37.872589	-32.028053
6544.659133	-229.398010	-38.223259	-34.073643
6544.662466	-231.911163	-38.866158	-37.521915
6544.665800	-234.541199	-39.625950	-39.918175
6544.669129	-237.755707	-39.801285	-42.606663
6544.672466	-239.099930	-40.444183	-45.412041
6544.677088	-244.652252	-41.788429	-51.548801
6544.680039	-247.516083	-42.255993	-53.945057
6544.683342	-249.795441	-42.665108	-57.685566
6544.686772	-252.542374	-43.074226	-60.607834
6544.690058	-255.581528	-44.184689	-64.582115
6544.692950	-258.445374	-44.418468	-67.971947
6544.696229	-261.776733	-45.704266	-70.543541
6544.699557	-263.939209	-46.873173	-74.926941
6544.702886	-266.686157	-46.931618	-78.901222
6544.706231	-270.368195	-47.632961	-83.459969
6544.709127	-273.407349	-48.509644	-87.025131
6544.712463	-276.446533	-49.269432	-91.642311
6544.715792	-279.310333	-49.678551	-95.207481
6544.719131	-282.583282	-51.022793	-100.000000
6544.722461	-285.447083	-51.431911	-105.435417
