time (s)	magX	magY	magZ
5836.523286	194.038574	16.364700	-3.097604
5836.526619	194.915253	16.832262	-3.156049
5836.529956	195.967270	16.540035	-4.324956
5836.533288	196.493286	16.540035	-4.675628
5836.536620	197.954422	16.423145	-5.902981
5836.539952	198.831100	16.773817	-7.130333
5836.543284	200.642899	16.832262	-7.597896
5836.546621	201.694916	16.890707	-8.766803
5836.549959	203.097610	16.540035	-10.520164
5836.553315	204.383392	16.832262	-11.455289
5836.556623	206.370544	16.890707	-13.325541
5836.559957	207.597900	17.124489	-14.728229
5836.563286	209.585052	16.890707	-15.663354
5836.566613	211.221497	16.773817	-17.358271
5836.569965	212.507294	16.890707	-18.176504
5836.573285	214.494446	17.182934	-19.462303
5836.576618	216.364700	16.715372	-21.683226
5836.579952	218.293411	17.066044	-23.261251
5836.583288	220.338989	16.949154	-25.482174
5836.586620	221.975449	16.890707	-27.469316
5836.590792	226.534195	17.416716	-30.099356
5836.594157	228.170654	17.358271	-32.612507
5836.597531	230.216248	17.358271	-33.606079
5836.600875	232.612518	17.124489	-36.762127
5836.603746	234.833435	17.708942	-38.515488
5836.607066	236.294556	17.767387	-40.268848
5836.610408	238.807724	18.001169	-41.145531
5836.613706	240.268845	17.650497	-43.074226
5836.617043	242.080658	18.585623	-45.587376
5836.619939	244.652252	18.877850	-48.217415
5836.623283	246.522491	18.877850	-50.613678
5836.626617	249.210983	18.585623	-52.483929
5836.629944	251.256592	18.936295	-53.769726
5836.633279	253.769730	19.637638	-56.516659
5836.636610	256.165985	19.520748	-58.562244
5836.639964	258.328461	19.871420	-60.841614
5836.643276	261.426056	19.696083	-64.231445
5836.646608	263.939209	19.520748	-66.335472
5836.649943	266.218597	20.338982	-69.491524
5836.653277	268.965515	19.637638	-72.881355
5836.656610	271.654022	20.631210	-75.277618
5836.659937	274.634705	20.572765	-78.258331
5836.663332	277.849213	20.631210	-82.232613
5836.666613	280.420807	20.280537	-85.973114
5836.669948	283.226166	21.098774	-89.713615
5836.673273	287.258911	20.806547	-93.921684
5836.676611	290.181183	20.689655	-98.363533
5836.679937	293.746338	21.391001	-101.870255
5836.683303	297.369965	21.157219	-106.136765
5836.686608	300.526001	21.741673	-110.812393
5836.689953	304.091156	21.507891	-116.656921
5836.693273	307.481018	21.449446	-121.741676
5836.696608	310.520172	21.274109	-126.475739
5836.700810	317.884277	21.332554	-137.346573
5836.704159	321.391022	21.391001	-142.898895
5836.707541	325.599060	21.507891	-148.743423
5836.710866	329.514923	20.806547	-156.049103
5836.714132	332.670959	21.274109	-162.536530
5836.717022	336.528351	21.449446	-169.082397
5836.720358	340.677979	21.040327	-176.154297
5836.723693	343.541779	21.157219	-183.284622
5836.727065	347.516083	21.449446	-189.538269
5836.729932	350.672119	21.391001	-197.486847
5836.733276	354.471069	21.274109	-204.967850
5836.736599	358.971344	21.391001	-212.741089
5836.739935	362.361206	21.507891	-220.514328
5836.743266	365.809479	21.332554	-228.170654
5836.746599	369.491516	20.631210	-235.593231
5836.749933	372.822906	21.566336	-243.541794
5836.753267	375.803619	21.449446	-253.360611
5836.756600	380.070129	21.800117	-261.192261
5836.759988	382.641724	21.624781	-269.900635
5836.763268	386.031555	21.683226	-278.667450
5836.766605	389.421387	21.332554	-287.434235
5836.769969	392.109863	21.741673	-297.603760
5836.773264	394.798370	22.150789	-306.370544
5836.776623	398.305084	21.566336	-317.358276
5836.779931	401.052002	21.391001	-326.826416
5836.783264	403.331360	21.741673	-336.995911
5836.786598	405.610748	21.449446	-348.275848
5836.789940	408.065460	21.332554	-360.023376
5836.793263	410.812378	20.923437	-371.361786
5836.796596	412.857971	21.040327	-382.641724
5836.799929	414.085327	20.514320	-394.564575
5836.803257	416.014008	20.397429	-406.955017
5836.806592	417.124512	19.871420	-420.222107
5836.810879	420.397430	18.819405	-446.347198
5836.814236	420.338959	17.767387	-459.731140
5836.817505	420.631226	17.299826	-474.517822
5836.820805	420.923431	16.247808	-489.538300
5836.824110	420.163635	15.195791	-504.208099
5836.827014	420.280548	14.319112	-519.345398
5836.830349	418.234955	13.851549	-533.956787
5836.833677	417.475189	12.682642	-551.022827
5836.837052	415.195801	11.279953	-566.919922
5836.839926	412.799561	9.526592	-582.349487
5836.843257	409.877258	8.533022	-598.480408
5836.846593	406.721222	7.013443	-614.202209
5836.849923	402.922241	5.786090	-630.859131
5836.853266	398.655762	4.383401	-645.704285
5836.856608	393.571014	3.156049	-662.536499
5836.859918	387.843384	1.402689	-678.959656
5836.863256	382.291046	-0.876680	-694.213928
5836.866594	376.446533	-1.870251	-710.286377
5836.869923	369.316193	-3.682057	-724.722412
5836.873256	362.185852	-5.260082	-740.327332
5836.876586	354.120392	-6.312099	-756.107544
5836.879915	345.587372	-8.007013	-770.660461
5836.883253	337.112793	-9.818819	-785.388672
5836.886590	327.527771	-10.929281	-799.357056
5836.889917	318.176514	-12.682642	-813.267151
5836.893253	307.831665	-13.734658	-825.715942
5836.896588	296.843964	-15.312682	-839.041504
5836.899934	286.440674	-16.949154	-852.133301
5836.903250	274.400940	-18.994740	-865.225037
5836.906588	263.296326	-20.514320	-876.329590
5836.909913	250.847458	-21.683226	-887.141968
5836.913250	238.281708	-22.969025	-898.246643
5836.916582	224.663956	-25.131502	-908.123901
5836.921196	196.785507	-28.345997	-926.241943
5836.924128	182.758621	-29.865574	-935.943909
5836.927429	167.796616	-31.911165	-943.834045
5836.930792	152.483932	-34.482758	-951.607239
5836.934110	136.995911	-35.534775	-958.211609
5836.937033	120.163643	-37.580360	-964.348328
5836.940366	103.448273	-39.625950	-969.549927
5836.943733	87.375801	-42.431328	-973.991760
5836.947001	69.900642	-44.535358	-978.492065
5836.949918	52.367039	-46.697838	-981.122131
5836.953249	34.658096	-49.094097	-983.109253
5836.956582	16.949154	-51.665695	-984.453613
5836.959916	-1.519579	-54.295731	-985.914734
5836.963248	-20.163647	-55.347752	-984.745789
5836.966582	-38.047924	-58.328461	-983.927551
5836.969908	-56.399769	-61.075394	-980.946838
5836.973242	-74.576271	-63.471649	-978.784363
5836.976576	-92.343658	-65.517242	-974.225586
5836.979912	-110.753944	-68.030396	-970.426636
5836.983245	-128.346008	-69.666862	-964.640503
5836.986593	-145.645828	-71.654007	-958.620667
5836.989905	-162.653427	-73.874924	-951.665710
5836.993242	-179.368790	-75.569847	-943.892456
5836.996569	-195.207474	-77.556984	-934.249023
5836.999906	-211.513733	-78.784332	-925.482178
5837.003244	-226.358841	-80.829926	-915.663330
5837.006579	-240.736420	-81.648163	-905.084717
5837.009907	-254.587967	-82.875511	-894.038574
5837.013241	-268.614838	-84.219757	-882.641724
5837.016575	-281.472839	-84.628876	-870.894226
5837.019907	-293.629456	-86.440674	-859.146667
5837.023239	-305.902985	-86.849800	-846.405579
5837.026576	-316.656921	-87.258911	-832.846252
5837.031228	-337.521912	-88.369377	-807.656372
5837.034114	-347.399200	-88.194038	-794.564575
5837.037448	-355.698425	-88.310928	-780.537720
5837.040833	-364.757446	-88.836937	-766.861511
5837.044156	-372.589142	-88.661598	-752.659302
5837.046998	-379.894806	-88.661598	-738.749268
5837.050336	-386.674438	-88.194038	-724.839233
5837.053658	-393.687897	-88.544708	-711.689087
5837.056991	-399.240204	-88.310928	-697.136169
5837.060333	-405.669220	-88.603157	-682.758606
5837.063236	-410.578644	-87.375801	-668.147278
5837.066570	-415.078888	-87.492691	-654.003540
5837.069900	-419.754547	-86.908241	-639.567505
5837.073251	-423.553467	-86.206894	-624.196411
5837.076569	-426.884827	-85.447105	-609.468140
5837.079902	-430.099335	-85.797783	-595.207520
5837.083231	-432.787842	-85.154877	-580.771484
5837.086566	-435.768555	-84.570427	-565.634155
5837.089896	-437.171265	-84.628876	-551.724121
5837.093234	-438.632385	-83.985970	-536.528320
5837.096566	-440.268860	-83.810638	-522.501465
5837.099897	-441.963776	-83.284630	-509.117462
5837.103235	-442.139099	-82.817062	-494.506134
5837.106560	-441.846893	-81.998833	-480.303894
5837.109895	-442.665100	-81.706604	-466.101685
5837.113233	-441.963776	-81.297485	-452.600800
5837.116569	-441.262451	-80.829926	-440.035065
5837.119901	-440.502655	-79.953239	-427.469299
5837.123229	-439.041504	-79.251900	-414.026886
5837.126561	-438.515472	-78.609001	-401.402710
5837.129895	-436.995880	-78.316772	-389.596710
5837.133225	-434.716553	-77.498535	-376.855621
5837.136565	-432.729401	-76.212738	-365.751038
5837.141265	-428.579773	-74.810051	-342.957336
5837.144160	-426.125061	-73.991814	-331.852722
5837.147527	-423.670380	-73.290474	-321.683228
5837.150778	-421.332550	-72.413788	-312.974854
5837.154072	-417.942719	-71.069550	-302.279388
5837.156991	-415.371124	-70.777321	-292.694336
5837.160345	-412.390411	-69.374634	-284.628876
5837.163649	-409.818848	-67.855057	-275.628296
5837.166983	-406.838074	-67.562828	-267.738190
5837.170315	-403.974304	-66.569260	-259.731140
5837.173228	-400.642914	-66.335472	-251.548798
5837.176560	-397.954407	-64.932785	-244.067795
5837.179891	-394.447693	-64.406784	-236.528351
5837.183221	-391.525421	-63.413208	-230.800705
5837.186552	-388.427826	-62.653416	-223.670364
5837.189920	-384.862671	-61.426067	-216.832260
5837.193223	-381.881958	-60.315601	-210.227936
5837.196553	-378.199890	-59.848042	-203.857391
5837.199889	-375.628296	-58.503799	-197.954422
5837.203224	-372.939789	-57.802456	-192.109879
5837.206555	-369.608429	-57.042664	-186.440689
5837.209889	-366.101685	-56.458210	-180.187027
5837.213222	-363.530090	-54.997082	-174.868500
5837.216552	-359.789581	-54.120399	-168.497955
5837.219888	-356.224426	-53.360603	-162.770309
5837.223222	-353.068390	-52.893044	-157.744019
5837.226555	-350.555237	-52.191700	-152.250153
5837.229882	-346.288727	-52.250145	-146.990067
5837.233237	-343.950928	-51.490356	-142.431335
5837.236552	-340.502625	-50.555229	-137.872589
5837.239887	-337.288147	-50.672119	-132.495621
5837.243215	-333.722961	-49.736996	-127.995323
5837.246547	-331.034485	-49.503212	-124.137924
5837.250809	-324.430145	-48.392754	-114.552895
5837.254068	-321.566345	-47.925190	-109.643486
5837.257401	-318.176514	-47.340736	-105.318520
5837.260730	-315.488037	-46.990063	-101.402687
5837.264140	-312.215088	-46.113384	-97.486847
5837.266979	-309.877289	-45.704266	-94.389252
5837.270299	-306.721222	-45.470486	-90.999420
5837.273653	-303.798950	-44.710697	-88.427818
5837.277000	-301.168915	-44.243134	-83.985970
5837.279881	-298.538879	-44.126244	-81.765053
5837.283220	-295.908844	-43.775570	-79.018112
5837.286548	-293.512573	-42.957336	-76.154297
5837.289877	-291.408539	-42.489773	-72.939804
5837.293210	-289.012268	-42.080654	-70.543541
5837.296545	-286.440674	-41.729984	-68.088837
5837.299878	-284.453522	-41.379311	-66.335472
5837.303212	-282.700195	-40.444183	-63.822330
5837.306563	-281.063690	-40.151958	-61.776741
5837.309878	-278.725891	-39.625950	-58.912914
5837.313210	-276.972534	-39.041496	-57.510227
5837.316539	-274.751617	-38.749268	-55.289303
5837.319880	-273.173584	-38.398598	-54.237289
5837.323210	-271.770874	-38.164814	-53.126823
5837.326539	-270.309753	-38.164814	-50.730568
5837.329869	-268.088837	-36.995907	-50.087666
5837.333207	-266.510834	-36.586792	-48.860313
5837.336546	-265.049683	-36.177673	-47.632961
5837.339875	-263.705444	-35.710110	-46.347164
5837.343202	-262.127411	-35.125656	-44.360023
5837.346604	-260.958496	-35.300995	-43.015781
5837.349891	-259.555817	-35.184105	-40.677963
5837.353211	-257.977783	-34.482758	-40.385738
5837.356537	-256.575104	-34.365868	-39.041496
5837.361174	-254.237289	-33.313854	-36.469902
5837.364067	-253.009933	-33.781414	-35.300995
5837.367425	-252.016357	-32.787846	-34.482758
5837.370737	-249.970764	-32.963181	-33.313854
5837.374138	-248.918777	-32.846291	-31.969610
5837.376975	-248.100525	-32.904736	-31.268263
5837.380353	-246.814728	-32.320282	-30.391582
5837.383633	-245.645828	-32.554062	-29.456457
5837.386993	-244.827576	-32.086502	-28.053770
5837.389868	-243.775558	-32.554062	-27.001753
5837.393216	-242.139099	-31.560490	-26.651081
5837.396534	-241.496201	-32.320282	-26.125072
5837.399869	-240.794846	-31.209818	-24.663939
5837.403194	-239.918182	-31.677380	-24.021040
5837.406535	-239.099930	-31.502045	-23.319696
5837.409866	-238.106369	-31.092926	-22.559906
5837.413198	-237.872604	-31.092926	-22.326126
5837.416532	-237.171249	-30.976036	-22.150789
5837.419867	-236.294556	-30.976036	-21.391001
5837.423201	-235.826996	-31.151373	-21.040327
5837.426533	-236.060791	-30.450027	-20.631210
5837.429884	-234.716537	-30.274693	-19.754528
5837.433195	-235.534760	-29.690239	-19.403856
5837.436534	-234.950333	-29.924021	-19.170076
5837.439910	-234.307434	-29.982466	-19.637638
5837.443195	-234.132080	-29.865574	-18.819405
5837.446532	-234.599640	-29.398012	-18.585623
5837.449868	-234.950333	-29.573349	-18.994740
5837.453198	-234.833435	-29.164230	-19.170076
5837.456528	-234.482758	-29.456457	-19.988310
5837.459862	-234.716537	-28.872004	-19.462303
5837.463191	-235.125656	-28.930450	-19.345411
5837.466533	-235.300995	-28.755114	-20.046755
5837.470732	-236.060791	-27.761543	-20.222092
5837.474137	-236.236115	-27.644651	-21.157219
5837.477457	-236.762115	-28.521332	-21.741673
5837.480808	-237.405045	-27.703098	-22.793688
5837.484121	-237.405045	-27.527761	-22.969025
5837.486951	-238.632370	-27.703098	-23.728813
5837.490280	-238.632370	-27.469316	-23.962595
5837.493629	-239.041489	-27.819988	-25.014612
5837.496950	-239.859726	-27.761543	-24.196377
5837.499854	-240.093521	-27.410872	-24.956165
5837.503185	-240.853302	-27.819988	-25.482174
5837.506526	-241.262405	-27.761543	-25.715956
5837.509854	-242.139099	-27.177090	-26.767973
5837.513191	-242.781998	-27.644651	-27.001753
5837.516522	-244.009354	-27.118645	-27.352425
5837.519854	-244.243118	-27.001753	-27.878433
5837.523194	-244.535355	-27.177090	-28.521332
5837.526517	-245.002914	-26.767973	-28.345997
5837.529857	-246.288727	-27.118645	-29.865574
5837.533210	-246.873169	-27.235535	-30.800701
5837.536526	-247.983643	-26.592636	-31.735825
5837.539851	-249.035645	-26.592636	-32.261837
5837.543184	-249.970764	-26.884863	-32.495617
5837.546520	-250.613663	-27.177090	-33.606079
5837.549852	-251.315018	-27.644651	-34.424313
5837.553184	-252.542374	-26.826418	-34.716541
5837.556517	-253.886597	-27.177090	-36.469902
5837.559848	-255.581528	-27.293980	-37.697254
5837.563180	-256.282867	-26.943308	-38.223259
5837.566525	-258.445374	-27.060200	-40.385738
5837.569849	-259.848053	-27.352425	-41.145531
5837.573185	-260.490936	-26.651081	-42.840446
5837.576514	-261.952057	-26.884863	-44.243134
5837.580725	-265.926361	-27.235535	-49.152542
5837.584142	-268.088837	-26.884863	-50.789009
5837.587460	-269.900635	-26.592636	-52.250145
5837.590706	-272.063110	-26.300409	-54.237289
5837.594026	-273.816498	-25.949738	-56.282879
5837.596957	-275.745178	-26.417299	-58.737583
5837.600268	-278.141418	-26.066628	-61.718292
5837.603639	-280.829926	-25.832848	-63.646992
5837.606938	-282.349518	-26.008183	-66.627708
5837.609846	-284.395111	-25.774401	-69.082413
5837.613181	-287.258911	-25.715956	-71.770897
5837.616509	-290.356506	-25.774401	-73.933372
5837.619843	-291.934540	-25.774401	-76.855644
5837.623179	-294.389252	-24.605494	-80.011688
5837.626554	-296.434845	-24.839275	-83.401520
5837.629848	-299.298645	-25.365284	-86.557564
5837.633178	-302.513153	-24.488602	-89.596725
5837.636507	-304.500305	-24.663939	-93.045006
5837.639844	-307.071869	-24.430157	-95.908829
5837.643184	-309.760376	-24.254822	-98.480423
5837.646544	-312.156616	-24.313267	-101.753365
5837.649847	-314.845123	-24.605494	-105.201637
5837.653172	-317.767395	-24.430157	-108.474579
5837.656511	-319.696106	-24.430157	-111.455284
5837.659840	-322.559906	-24.196377	-114.845123
5837.663170	-325.306854	-24.196377	-118.877853
5837.666506	-327.761566	-24.254822	-123.144363
5837.669837	-330.566925	-24.780828	-127.001747
5837.673171	-333.664520	-23.962595	-131.092926
5837.676529	-335.943878	-23.728813	-135.359436
5837.679843	-338.632355	-23.436586	-139.392166
5837.683169	-342.197540	-23.085915	-144.067795
5837.686506	-345.528931	-23.202805	-148.509644
5837.690761	-350.789032	-23.728813	-158.211578
5837.694023	-354.120392	-22.969025	-162.887207
5837.697358	-357.218018	-23.027470	-168.790192
5837.700683	-360.432495	-22.676798	-174.167160
5837.704042	-363.588562	-22.209234	-180.713028
5837.706966	-366.452362	-22.559906	-187.025131
5837.710284	-370.251312	-21.566336	-192.577438
5837.713617	-373.348938	-21.566336	-199.649323
5837.716953	-376.855621	-21.098774	-205.669189
5837.719864	-380.011688	-20.572765	-213.325546
5837.723168	-383.226166	-19.812975	-220.455887
5837.726498	-386.557587	-19.228521	-227.586197
5837.729840	-389.830505	-18.527178	-235.359436
5837.733178	-393.629456	-18.410286	-242.781998
5837.736503	-396.668640	-17.416716	-251.315018
5837.739836	-398.889526	-17.124489	-259.906494
5837.743168	-402.922241	-15.663354	-268.497955
5837.746501	-406.136749	-15.254237	-277.849213
5837.749828	-408.532990	-14.377557	-286.440674
5837.753165	-411.455292	-13.734658	-296.668640
5837.756498	-413.676208	-13.033314	-306.019867
5837.759833	-416.540039	-11.922852	-315.488037
5837.763172	-419.170105	-10.870836	-325.248383
5837.766497	-421.800140	-10.052601	-335.651672
5837.769827	-424.547058	-8.766803	-346.171844
5837.773162	-426.534180	-8.007013	-356.107544
5837.776500	-428.462891	-7.013443	-366.686157
5837.779871	-429.865601	-5.961426	-376.972534
5837.783168	-431.852722	-5.260082	-388.194031
5837.786492	-432.670959	-3.857393	-399.590881
5837.789831	-434.365845	-2.337814	-410.403259
5837.793194	-435.534760	-1.753361	-421.800140
5837.796494	-436.762146	0.175336	-432.437195
5837.801130	-438.106384	2.863822	-456.691986
5837.804032	-438.281738	3.506721	-467.504395
5837.807378	-438.983063	5.552309	-479.427246
5837.810771	-438.398590	6.779661	-491.759216
5837.814083	-438.398590	7.890122	-505.143219
5837.816949	-437.288147	9.468147	-517.825867
5837.820246	-436.411469	10.578609	-529.573364
5837.823585	-434.307434	12.156633	-542.723572
5837.826920	-432.670959	14.026885	-555.464661
5837.830253	-431.092926	15.721800	-569.608398
5837.833159	-428.287567	17.182934	-582.057312
5837.836499	-425.423706	19.170076	-595.324402
5837.839826	-422.092346	21.157219	-609.292786
5837.843152	-418.468719	23.261251	-622.442993
5837.846490	-414.611328	24.956165	-636.353027
5837.849823	-410.111053	27.469316	-650.263000
5837.853153	-404.617157	29.865574	-664.874390
5837.856485	-399.064880	31.969610	-678.842773
5837.859824	-392.986572	35.067211	-692.577454
5837.863155	-386.206879	37.054356	-705.201599
5837.866489	-378.901215	39.859730	-719.053162
5837.869822	-371.127991	43.132671	-732.203369
5837.873192	-363.354767	45.762711	-746.054932
5837.876491	-353.769745	48.568089	-759.497375
5837.879832	-343.775574	51.139683	-770.894165
5837.883153	-334.015198	54.763298	-784.044434
5837.886484	-324.137939	57.977791	-796.551697
5837.889818	-313.150208	60.374050	-808.416199
5837.893154	-302.162476	63.763882	-819.988342
5837.896483	-290.005859	66.744598	-830.800720
5837.899819	-278.433655	69.666862	-841.496155
5837.903153	-265.108124	72.355347	-852.016357
5837.906481	-251.665680	75.160721	-860.783203
5837.910696	-226.183502	80.362358	-878.492065
5837.914109	-212.273529	83.284630	-885.914734
5837.917440	-198.071304	85.447105	-893.512512
5837.920741	-184.044418	88.369377	-899.590881
5837.924004	-168.673294	89.947395	-906.078369
5837.926914	-154.061951	92.577438	-911.221497
5837.930234	-138.573929	94.623032	-916.247864
5837.933568	-123.670364	96.785507	-919.754517
5837.936909	-108.591461	98.947983	-923.611938
5837.940253	-92.635887	100.759796	-926.709534
