time (s)	magX	magY	magZ
6395.267406	249.678543	14.260666	-75.277618
6395.270737	245.821167	14.026885	-71.011101
6395.275000	239.041489	14.319112	-63.646992
6395.278282	235.534760	14.845119	-59.672707
6395.281592	232.028061	14.436002	-55.756866
6395.284924	229.047348	14.728229	-51.548801
6395.288271	225.774414	14.143775	-48.626534
6395.291161	222.267670	14.085330	-44.944477
6395.294492	219.053192	14.377557	-41.613094
6395.297872	216.306259	13.851549	-38.047924
6395.301187	212.565750	14.260666	-34.248978
6395.304073	209.935715	13.559322	-31.502045
6395.307481	206.545883	13.383986	-28.521332
6395.310735	203.214508	13.676212	-25.540621
6395.314074	200.116898	12.857978	-22.852133
6395.317402	197.136169	11.922852	-19.812975
6395.320733	194.097015	11.747516	-17.066044
6395.324069	191.525421	11.396844	-14.845119
6395.327400	188.603149	10.812390	-11.981297
6395.330741	185.797775	10.929281	-9.292811
6395.334073	183.343079	10.052601	-7.773232
6395.337400	180.596130	9.585038	-5.084745
6395.340749	177.732330	9.468147	-3.623612
6395.344067	175.336060	9.234365	-1.694915
6395.347404	172.589127	8.766803	0.467563
6395.350736	170.835770	8.299240	2.922268
6395.354069	168.088837	7.948568	4.383401
6395.357397	166.569260	8.065459	6.428989
6395.360733	164.172989	7.773232	7.130333
6395.364066	162.478073	7.597896	8.123904
6395.367400	160.607834	8.123904	9.175920
6395.370737	158.620697	7.890122	10.695500
6395.374067	157.042664	7.831677	12.156633
6395.377401	155.464630	7.714787	12.857978
6395.380736	153.068375	7.247224	13.968439
6395.385377	150.496780	7.656341	16.540035
6395.388254	149.561661	7.597896	16.890707
6395.391603	147.749847	7.656341	17.767387
6395.394945	145.704269	8.065459	18.410286
6395.398310	144.535370	8.240795	18.585623
6395.401203	143.366455	7.948568	20.163647
6395.404549	142.255981	8.357686	20.689655
6395.407846	141.028641	8.065459	20.981882
6395.411155	140.035065	8.474577	22.092344
6395.414495	138.106369	8.240795	23.319696
6395.417388	136.528351	8.357686	23.962595
6395.420725	135.827011	8.474577	25.014612
6395.424065	134.424316	8.474577	25.949738
6395.427425	133.430740	8.533022	26.417299
6395.430723	132.437164	8.182350	26.008183
6395.434061	131.034485	8.474577	27.410872
6395.437389	130.216248	8.240795	27.878433
6395.440724	128.871994	8.007013	29.164230
6395.444058	127.878441	8.007013	29.982466
6395.447391	126.943298	7.890122	30.683809
6395.450721	125.657509	7.831677	30.800701
6395.454075	124.956169	7.422560	30.976036
6395.457423	123.553482	6.721216	31.852718
6395.460724	122.793686	7.188778	31.852718
6395.464059	121.157219	7.130333	32.495617
6395.467388	120.864990	6.370543	33.606079
6395.470756	119.929863	5.961426	34.248978
6395.474053	118.936302	5.786090	34.073643
6395.477389	117.825829	5.844535	35.067211
6395.480721	118.059608	6.195207	35.476330
6395.484060	117.241379	5.201637	35.710110
6395.487382	116.189362	5.376973	35.593220
6395.490719	116.072479	5.376973	35.710110
6395.494055	115.838692	5.201637	35.768555
6395.498317	115.078903	5.493863	36.353008
6395.501706	114.552895	5.552309	37.171246
6395.504991	113.734665	5.435418	36.528347
6395.508232	113.500885	5.610754	37.229691
6395.511567	113.383987	5.669199	36.995907
6395.514502	113.793098	5.552309	37.054356
6395.517809	113.617767	5.376973	36.995907
6395.521143	113.559319	6.019871	37.405025
6395.524479	112.799538	5.610754	37.288136
6395.527828	113.033318	5.961426	36.528347
6395.530714	112.974869	6.604325	36.353008
6395.534052	113.267097	7.071887	36.353008
6395.537416	113.559319	6.721216	36.879017
6395.540712	113.208649	7.013443	36.703682
6395.544070	113.442436	6.721216	36.060783
6395.547382	113.267097	7.364114	35.768555
6395.550712	113.968445	7.714787	36.119228
6395.554049	114.085327	7.597896	36.119228
6395.557377	114.377556	7.890122	35.710110
6395.560713	113.500885	7.305669	35.476330
6395.564051	114.202225	7.364114	36.119228
6395.567385	114.260658	8.240795	36.060783
6395.570714	114.786674	7.948568	36.060783
6395.574065	114.669785	7.364114	35.827003
6395.577375	114.377556	7.948568	34.891876
6395.580707	113.734665	7.831677	36.060783
6395.584042	114.611343	7.831677	35.885448
6395.587380	114.319107	7.656341	35.593220
6395.590704	115.020454	7.130333	35.534775
6395.594047	115.546463	7.364114	35.827003
6395.597374	115.488014	7.071887	36.177673
6395.600713	115.955582	7.130333	35.067211
6395.604045	116.014030	7.305669	35.417885
6395.608638	117.416718	7.130333	35.067211
6395.611606	117.708946	7.188778	35.008766
6395.614917	118.468735	7.188778	34.716541
6395.618266	118.877853	7.013443	35.242550
6395.621576	119.696083	7.481005	34.658096
6395.624950	120.046761	7.831677	33.372299
6395.627816	120.689651	7.013443	33.255405
6395.631138	121.683228	7.305669	32.203392
6395.634460	122.443024	7.890122	33.080070
6395.637788	123.202805	7.714787	32.028053
6395.640704	124.137924	7.831677	31.092926
6395.644033	125.248398	8.357686	30.391582
6395.647368	126.943298	8.474577	28.988895
6395.650707	127.644661	8.533022	28.930450
6395.654059	128.638214	9.234365	28.930450
6395.657374	129.047348	9.117476	27.936878
6395.660704	131.151382	10.403274	27.469316
6395.664032	132.378723	10.403274	25.949738
6395.667373	133.781403	10.286383	25.365284
6395.670701	135.125656	10.695500	24.605494
6395.674036	137.112793	11.689071	23.495031
6395.677372	138.515488	11.864407	23.319696
6395.680719	139.684387	12.507306	22.501461
6395.684035	140.619522	12.624197	20.689655
6395.687369	142.372879	12.624197	20.163647
6395.690699	143.658676	12.682642	19.111629
6395.694037	145.353592	12.974869	18.702513
6395.697404	146.814728	13.208650	16.949154
6395.700696	148.275864	13.734658	16.014027
6395.704034	149.386322	13.267096	15.254237
6395.707368	151.431900	14.085330	14.611338
6395.710699	152.776154	13.909994	12.974869
6395.714031	153.886612	14.552893	12.156633
6395.717360	155.698425	14.728229	11.338399
6395.720693	157.393341	14.786674	10.227938
6395.724906	160.900055	15.078900	8.065459
6395.728299	162.653427	15.488018	7.071887
6395.731678	164.640564	15.604909	5.844535
6395.734913	166.569260	15.780245	5.318527
6395.738213	168.731735	16.014027	3.331385
6395.741163	170.835770	15.721800	1.519579
6395.744450	172.413788	16.247808	-0.526008
6395.747784	174.810059	16.014027	-2.688486
6395.751126	177.381653	16.189363	-4.266511
6395.754023	179.894791	16.423145	-5.961426
6395.757357	182.115723	16.890707	-7.247224
6395.760692	185.096436	17.066044	-9.760374
6395.764029	187.668030	17.592052	-11.338399
6395.767355	190.005844	17.825832	-13.033314
6395.770696	191.817657	18.644068	-16.481590
6395.774040	194.915253	18.994740	-18.468731
6395.777355	198.012848	18.877850	-20.689655
6395.780697	200.759796	20.455875	-24.663939
6395.784030	204.149628	20.748100	-26.943308
6395.787354	207.247238	21.274109	-29.514902
6395.790691	210.227936	21.566336	-32.554062
6395.794022	213.676208	22.443016	-35.534775
6395.797359	216.598480	23.027470	-40.035065
6395.800690	219.696091	24.430157	-43.775570
6395.804019	222.735245	24.780828	-47.983635
6395.807351	226.066635	25.540621	-51.957916
6395.810686	229.924011	26.534191	-55.873756
6395.814040	232.787842	27.703098	-60.607834
6395.817352	236.353012	28.462887	-64.640564
6395.820684	240.093521	29.105785	-68.556396
6395.824019	243.483353	30.157801	-74.284050
6395.827353	246.580963	30.508474	-78.609001
6395.830689	250.146103	31.560490	-83.518410
6395.834944	257.159576	33.080070	-93.103447
6395.838208	260.490936	33.781414	-98.714203
6395.841525	263.997681	34.248978	-103.214493
6395.844880	267.387482	34.658096	-108.357681
6395.848232	271.654022	35.067211	-114.552895
6395.851110	275.102295	35.651665	-119.286964
6395.854457	278.784332	36.002338	-126.417305
6395.857811	281.297485	36.411457	-132.437164
6395.861132	285.037994	36.820572	-137.755707
6395.864016	288.720032	36.879017	-144.126236
6395.867356	291.583862	37.229691	-151.315018
6395.870681	295.733490	38.164814	-157.919342
6395.874013	299.181763	38.515488	-165.166565
6395.877347	302.454712	38.457043	-172.939804
6395.880681	306.253662	38.866158	-180.479248
6395.884011	309.526581	39.333721	-188.661606
6395.887371	313.033325	39.859730	-197.603745
6395.890679	316.364685	39.918175	-206.019882
6395.894015	319.345398	40.093510	-215.195801
6395.897346	322.676788	41.087086	-225.248383
6395.900679	325.482178	42.139099	-235.242554
6395.904006	328.696686	42.431328	-244.243118
6395.907351	331.618927	43.132671	-255.581528
6395.910677	334.482758	43.775570	-266.393921
6395.914012	336.586792	44.476913	-278.316772
6395.917341	339.333740	45.061367	-289.479828
6395.920673	341.262421	46.171829	-302.337799
6395.924013	343.132660	47.691406	-314.319122
6395.927366	343.950928	48.509644	-326.709534
6395.930702	345.645844	49.152542	-340.210419
6395.934012	346.288727	50.321449	-352.893036
6395.937338	346.814728	51.490356	-367.387482
6395.940673	347.516083	52.367039	-380.245483
6395.945308	346.697845	54.295731	-408.416138
6395.948257	345.762695	55.464642	-422.852142
6395.951549	344.593811	56.165989	-436.294556
6395.954940	342.723572	56.691994	-450.438354
6395.958338	340.327301	57.744007	-465.575684
6395.961132	338.281708	58.036240	-480.011688
6395.964428	335.885468	58.386909	-494.681458
6395.967770	332.203400	58.679134	-507.714783
6395.971096	327.995331	58.094681	-522.442993
6395.974024	324.371704	58.094681	-536.586792
6395.977335	319.637634	58.211571	-551.022827
6395.980674	315.254242	57.627117	-565.400391
6395.984005	309.234344	56.516659	-579.135010
6395.987336	302.746948	55.990646	-591.174744
6395.990671	296.084167	54.938633	-606.019897
6395.994005	289.187592	54.237289	-619.170105
6395.997338	281.998840	52.659260	-632.670959
6396.000665	273.232025	50.964348	-644.769165
6396.003999	265.049683	50.087666	-656.575134
6396.007335	256.165985	48.275860	-670.309753
6396.010693	246.288727	46.464054	-682.875488
6396.013997	236.645248	44.593803	-694.681458
6396.017339	225.540619	42.548218	-705.493896
6396.020672	214.611343	41.145531	-715.955566
6396.023999	203.039169	39.216831	-726.125061
6396.027333	190.356522	37.521915	-735.184082
6396.030667	176.972534	35.359440	-745.295166
6396.033995	163.179428	33.722969	-754.646423
6396.037333	149.737000	31.735825	-763.237854
6396.040670	134.482758	29.456457	-771.186462
6396.044000	119.520744	27.878433	-777.615479
6396.047332	103.623619	25.891293	-784.044434
6396.050668	87.784920	23.845703	-790.064270
6396.054901	54.587959	20.338982	-797.954407
6396.058271	38.281708	18.936295	-800.935181
6396.061595	20.572765	16.890707	-802.571594
6396.064932	3.682057	15.546463	-803.389832
6396.068179	-13.559322	14.202221	-803.039185
6396.071091	-31.151373	12.390414	-801.636475
6396.074426	-47.925190	10.169491	-800.642883
6396.077744	-65.166565	8.649913	-798.129761
6396.081078	-81.472816	6.896552	-794.973694
6396.084424	-98.188194	5.084745	-790.005798
6396.087329	-113.851547	2.454705	-785.330200
6396.090659	-129.982468	0.233781	-779.368774
6396.093994	-145.119812	-2.630041	-772.238464
6396.097344	-158.971359	-4.558738	-764.874390
6396.100661	-173.290482	-6.604325	-756.984253
6396.103992	-186.323792	-9.292811	-749.795410
6396.107321	-199.941559	-11.630626	-740.502625
6396.110663	-212.741089	-14.319112	-731.268250
6396.113996	-224.196381	-16.540035	-720.981873
6396.117324	-235.651657	-19.345411	-711.455322
6396.120656	-245.996506	-21.975452	-701.987122
6396.123993	-256.282867	-24.839275	-690.414978
6396.127324	-265.984802	-27.527761	-679.427246
6396.130650	-275.277618	-30.216248	-667.913513
6396.133986	-283.810638	-32.378727	-656.808899
6396.137322	-291.876099	-35.184105	-644.535339
6396.140690	-299.707764	-37.346581	-632.554077
6396.143991	-306.896545	-39.976620	-619.462280
6396.147323	-313.851562	-41.905319	-607.773193
6396.150657	-320.514313	-44.067799	-593.746338
6396.153986	-326.241974	-46.230274	-580.303894
6396.157320	-331.911163	-47.340736	-567.971924
6396.160652	-336.703674	-49.386322	-555.055542
6396.163983	-341.437744	-51.198132	-541.788452
6396.168244	-349.327881	-52.951492	-514.669800
6396.171567	-352.834595	-53.886616	-500.584473
6396.174824	-355.932220	-54.997082	-486.791382
6396.178169	-358.445374	-55.815315	-472.939819
6396.181521	-360.724701	-56.341320	-458.971344
6396.184443	-362.828766	-57.042664	-445.470490
6396.187745	-364.173004	-57.510227	-431.443604
6396.191097	-364.757446	-57.685566	-417.825836
6396.194434	-365.634125	-57.744007	-404.208099
6396.197317	-366.277039	-57.919346	-391.233215
6396.200709	-365.984802	-57.510227	-378.608978
6396.203979	-365.634125	-57.276447	-366.218597
6396.207312	-364.815918	-57.510227	-353.068390
6396.210651	-364.582123	-56.808884	-341.320862
6396.213984	-363.296326	-56.750443	-330.157806
6396.217317	-362.068970	-56.165989	-318.702515
6396.220647	-359.848053	-55.581535	-307.071869
6396.223982	-358.270020	-55.932205	-296.259491
6396.227328	-355.581512	-55.347752	-285.447083
6396.230643	-353.769745	-55.347752	-275.452942
6396.233976	-350.905884	-55.815315	-266.101685
6396.237312	-348.451202	-55.464642	-256.049072
6396.240649	-346.347168	-55.172413	-246.990067
6396.243976	-343.600220	-55.639977	-239.275284
6396.247306	-340.970184	-55.932205	-230.566925
6396.250647	-337.989471	-55.815315	-222.969025
6396.253973	-334.424316	-55.406197	-214.903564
6396.257308	-331.735840	-55.464642	-208.123901
6396.260646	-329.164246	-55.756866	-200.935120
6396.263973	-325.657501	-55.756866	-193.687897
6396.267361	-322.384583	-55.756866	-187.609589
6396.270651	-319.111633	-55.581535	-180.596130
6396.273973	-316.423157	-56.049095	-174.400940
6396.277312	-313.267090	-55.756866	-167.445938
6396.281508	-306.604309	-55.230862	-155.172424
6396.284824	-303.506744	-55.113972	-150.496780
6396.288213	-299.766205	-54.704849	-144.418472
6396.291517	-296.025696	-54.412621	-139.567505
6396.294417	-294.038574	-54.003506	-134.015198
6396.297754	-290.473419	-53.945057	-128.112213
6396.301131	-287.258911	-53.360603	-123.436584
6396.304481	-284.044403	-53.652836	-117.708946
6396.307733	-280.888367	-53.185272	-113.676216
6396.310644	-277.907654	-52.717709	-108.474579
6396.313980	-274.810059	-52.016365	-103.974281
6396.317300	-271.537109	-51.841026	-98.947983
6396.320642	-268.205750	-50.964348	-94.623032
6396.323975	-265.517242	-49.912331	-89.830505
6396.327297	-262.185852	-49.736996	-85.505554
6396.330635	-259.380493	-48.743423	-81.648163
6396.333973	-255.990646	-48.100525	-77.264755
6396.337301	-253.126831	-47.808300	-73.582703
6396.340633	-250.146103	-47.048508	-69.783752
6396.343986	-247.399185	-46.522503	-66.861488
6396.347303	-244.769150	-45.996494	-62.594975
6396.350636	-241.671539	-45.587376	-59.088253
6396.353965	-239.275284	-45.002922	-55.639977
6396.357301	-236.937469	-44.593803	-52.542370
6396.360629	-234.307434	-43.600235	-50.321449
6396.363992	-232.144958	-43.074226	-47.340736
6396.367297	-229.514908	-42.606663	-44.886032
6396.370635	-227.410858	-42.372883	-42.548218
6396.373996	-224.780823	-42.548218	-40.151958
6396.377295	-222.618347	-41.905319	-37.697254
6396.380626	-220.163651	-41.905319	-35.359440
6396.383965	-218.001175	-41.379311	-34.307423
6396.387306	-215.780228	-41.496201	-32.086502
6396.391918	-211.864395	-41.145531	-29.105785
6396.394834	-210.344833	-41.262421	-27.235535
6396.398219	-207.890137	-40.853302	-25.657511
6396.401545	-206.370544	-40.970196	-23.904150
6396.404891	-205.084747	-41.203976	-22.559906
6396.407733	-202.980713	-40.794857	-21.917007
6396.411063	-202.162476	-40.970196	-20.105202
6396.414385	-201.168915	-40.561073	-19.871420
6396.417741	-198.305084	-40.911751	-17.942724
6396.421050	-197.019287	-40.444183	-17.241379
6396.423957	-195.791931	-40.502628	-15.838690
6396.427290	-194.681473	-40.502628	-14.962010
6396.430627	-193.161896	-40.210403	-13.793103
6396.433958	-191.525421	-40.210403	-12.156633
6396.437291	-190.473404	-39.976620	-10.578609
6396.440621	-189.246063	-39.801285	-9.059030
6396.443959	-187.551147	-39.392166	-9.234365
6396.447292	-186.323792	-39.509056	-8.825249
6396.450623	-185.271774	-38.866158	-6.487434
6396.454019	-183.810638	-38.573933	-5.552309
6396.457295	-182.466400	-38.983051	-4.324956
6396.460640	-181.531265	-38.223259	-4.149620
6396.463959	-180.187027	-37.521915	-1.987142
6396.467287	-178.842789	-37.054356	-0.526008
6396.470620	-177.849213	-36.937462	0.350672
6396.473961	-176.621857	-36.645237	1.285798
6396.477286	-175.043839	-36.119228	1.928697
6396.480619	-174.576263	-36.528347	3.565166
6396.483951	-173.465805	-35.651665	3.097604
6396.487287	-172.647568	-36.002338	4.792519
6396.490622	-171.537109	-35.768555	5.260082
6396.493959	-171.011108	-35.300995	6.312099
6396.497289	-170.192871	-35.417885	7.013443
6396.501959	-169.082397	-34.891876	7.773232
6396.504975	-168.731735	-34.541206	8.007013
6396.508223	-167.738159	-34.248978	8.591467
6396.511468	-167.445938	-35.300995	8.474577
6396.514799	-166.627701	-35.184105	8.766803
6396.517721	-166.803040	-35.184105	8.649913
6396.521038	-166.160141	-35.359440	8.825249
6396.524368	-166.218597	-34.891876	9.351256
6396.527710	-165.809464	-35.300995	9.585038
6396.531058	-165.926361	-35.300995	9.818819
6396.533948	-165.809464	-35.242550	10.169491
6396.537281	-165.341904	-36.002338	9.994155
6396.540651	-165.225021	-36.411457	9.351256
6396.543950	-165.458801	-36.469902	9.292811
6396.547289	-165.984802	-36.528347	9.526592
6396.550616	-165.809464	-36.645237	8.591467
6396.553948	-165.926361	-36.236118	9.000585
6396.557274	-165.809464	-37.054356	8.766803
6396.560615	-166.101700	-36.820572	8.883694
6396.563947	-166.218597	-37.463470	8.942139
6396.567279	-166.393921	-36.995907	8.357686
6396.570609	-166.744583	-37.288136	9.059030
6396.573942	-167.387497	-37.054356	8.591467
6396.577276	-167.153717	-36.937462	8.825249
6396.580610	-166.744583	-37.697254	7.714787
6396.583971	-167.095261	-37.697254	8.007013
6396.587279	-167.036819	-37.580360	7.890122
6396.590615	-167.621277	-38.106369	7.714787
6396.593941	-167.562836	-38.340153	8.065459
6396.597279	-167.679718	-37.814144	7.539450
6396.600605	-168.556396	-37.638809	7.597896
6396.603943	-169.082397	-37.814144	7.130333
6396.607285	-169.257751	-37.872589	7.773232
6396.610608	-169.316177	-37.755699	7.422560
6396.615213	-170.309753	-38.223259	7.130333
6396.618112	-171.128006	-38.164814	6.078317
6396.621475	-171.128006	-37.989479	6.195207
6396.624832	-172.063126	-37.755699	5.669199
6396.628212	-172.822922	-37.814144	5.201637
6396.631045	-173.290482	-38.340153	5.493863
6396.634386	-173.991821	-38.047924	4.617183
6396.637704	-174.459381	-38.573933	3.389831
6396.641030	-175.336060	-38.398598	3.623612
6396.643938	-176.680298	-38.749268	2.454705
6396.647272	-177.615433	-38.924606	1.461134
6396.650605	-178.375214	-39.450611	0.876680
6396.653938	-179.894791	-40.151958	-0.876680
6396.657271	-181.180603	-41.087086	-0.935126
6396.660602	-182.641739	-40.970196	-3.565166
6396.663940	-183.869095	-41.028641	-2.863822
6396.667271	-184.921097	-41.613094	-4.734074
6396.670609	-186.265335	-42.139099	-5.727644
6396.673932	-187.375809	-43.366451	-7.247224
6396.677271	-189.012283	-43.600235	-8.416131
6396.680602	-190.298065	-44.360023	-10.520164
6396.683937	-191.992981	-44.886032	-11.689071
6396.687304	-193.629456	-45.002922	-12.799533
6396.690614	-195.441254	-45.821156	-14.260666
6396.693930	-197.077728	-46.230274	-16.423145
6396.697272	-198.305084	-46.756283	-16.890707
6396.700630	-200.526001	-47.340736	-19.111629
6396.703933	-202.279373	-47.574516	-20.397429
6396.707265	-203.857391	-48.509644	-22.033899
6396.710598	-205.493851	-49.035652	-24.254822
6396.713954	-207.247238	-49.503212	-26.066628
6396.717263	-209.585052	-49.853886	-27.527761
6396.720595	-211.163071	-50.029224	-29.690239
6396.725270	-214.669769	-51.139683	-33.196960
6396.728140	-216.306259	-51.256573	-35.125656
6396.731554	-218.877838	-51.841026	-37.054356
