time (s)	magX	magY	magZ
5478.226214	203.682068	-31.034481	-6.896552
5478.229124	200.818222	-30.800701	-4.734074
5478.232453	198.071304	-29.982466	-1.870251
5478.235787	194.856812	-29.690239	1.110462
5478.239118	192.343658	-30.040911	2.279369
5478.242455	189.246063	-29.807129	3.740503
5478.245789	187.609589	-28.813559	6.487434
5478.249125	185.388657	-28.638224	7.773232
5478.252462	182.349503	-28.988895	9.059030
5478.255788	180.771484	-28.170660	10.870836
5478.259114	178.667450	-27.644651	10.753945
5478.262495	176.504974	-26.943308	12.624197
5478.265784	174.810059	-27.293980	14.377557
5478.269121	171.829346	-27.118645	15.137346
5478.272450	169.842194	-26.884863	16.306253
5478.275783	168.205719	-26.709526	17.708942
5478.279117	166.393921	-25.949738	18.410286
5478.282452	164.874344	-25.774401	19.871420
5478.285778	163.179428	-25.482174	20.864992
5478.289116	161.309174	-25.423729	21.449446
5478.292448	159.672699	-24.663939	22.209234
5478.295818	157.802444	-24.313267	23.202805
5478.299115	156.049103	-23.611923	24.897720
5478.302451	155.113968	-23.436586	25.482174
5478.305778	153.302155	-23.728813	26.767973
5478.310500	150.847458	-22.559906	27.644651
5478.313420	149.152542	-23.144360	27.819988
5478.316709	147.691406	-22.793688	28.755114
5478.319995	145.996506	-21.800117	29.982466
5478.323304	144.944473	-21.507891	30.216248
5478.326204	143.834015	-21.040327	31.969610
5478.329528	142.665115	-21.332554	32.904736
5478.332869	141.203979	-20.864992	33.021626
5478.336206	139.450607	-20.864992	34.424313
5478.339141	138.281708	-21.098774	34.599651
5478.342445	136.937469	-21.215664	35.125656
5478.345776	136.177673	-20.689655	35.476330
5478.349112	135.067215	-20.572765	36.294563
5478.352435	133.839859	-19.929865	37.288136
5478.355823	132.963181	-20.280537	37.346581
5478.359104	132.261841	-20.338982	36.820572
5478.362441	131.326706	-20.397429	37.989479
5478.365777	131.034485	-19.696083	37.989479
5478.369140	130.508469	-20.222092	38.924606
5478.372439	129.514908	-19.579193	38.983051
5478.375773	128.696671	-19.111629	38.281708
5478.379112	128.404434	-19.754528	39.742840
5478.382442	127.819992	-19.812975	39.041496
5478.385773	127.177086	-19.462303	38.749268
5478.389104	126.008179	-19.345411	39.801285
5478.392435	126.300407	-19.345411	39.742840
5478.395771	125.949738	-19.345411	39.392166
5478.399100	125.715958	-19.286966	39.625950
5478.402439	126.066628	-18.702513	39.918175
5478.405769	125.073051	-19.228521	39.392166
5478.409103	125.014618	-18.819405	39.567505
5478.412443	124.897720	-19.170076	40.268848
5478.415785	124.722382	-18.936295	39.509056
5478.420373	124.839272	-18.644068	40.268848
5478.423310	124.137924	-18.293396	40.502628
5478.426611	123.962593	-18.468731	40.151958
5478.429966	124.547050	-18.410286	40.853302
5478.433304	124.547050	-18.001169	40.268848
5478.436223	124.313271	-18.059614	40.561073
5478.439548	124.021042	-17.942724	39.859730
5478.442920	123.845711	-18.059614	39.684395
5478.446199	124.079491	-17.182934	40.035065
5478.449528	124.371704	-17.299826	40.093510
5478.452436	124.254822	-17.241379	39.392166
5478.455784	124.254822	-17.182934	39.859730
5478.459096	124.722382	-17.416716	40.093510
5478.462432	124.897720	-17.299826	39.684395
5478.465763	125.306831	-17.007599	40.151958
5478.469104	125.131500	-16.890707	40.093510
5478.472434	124.780830	-17.124489	39.684395
5478.475767	125.599060	-16.656927	40.093510
5478.479092	125.774399	-16.832262	39.801285
5478.482428	125.832840	-16.715372	39.684395
5478.485787	126.767967	-16.773817	39.859730
5478.489099	126.475739	-16.481590	39.742840
5478.492423	127.235535	-16.715372	39.216831
5478.495757	127.644661	-16.540035	38.749268
5478.499100	128.579788	-17.182934	38.515488
5478.502428	128.638214	-17.299826	38.866158
5478.505762	130.216248	-17.299826	39.041496
5478.509095	130.508469	-16.832262	38.866158
5478.512428	130.917603	-17.066044	38.340153
5478.515754	131.385162	-16.773817	38.340153
5478.519093	132.261841	-17.124489	37.521915
5478.522462	132.612503	-17.182934	38.164814
5478.525762	133.781403	-17.124489	36.645237
5478.529097	134.891876	-16.832262	36.177673
5478.533299	137.463470	-17.475161	35.008766
5478.536629	138.398605	-17.767387	33.956753
5478.540010	139.567505	-17.299826	33.430744
5478.543353	140.853302	-16.949154	33.489189
5478.546232	141.963776	-17.533606	33.196960
5478.549511	142.957336	-17.066044	31.852718
5478.552857	144.243134	-17.416716	31.794271
5478.556172	145.938049	-17.533606	30.859146
5478.559530	146.990067	-17.533606	29.982466
5478.562421	148.217422	-17.007599	29.631794
5478.565791	150.555237	-16.832262	29.339567
5478.569088	151.548798	-16.773817	28.404442
5478.572425	153.594391	-16.423145	27.703098
5478.575758	154.704865	-16.890707	26.651081
5478.579089	156.224426	-16.306253	25.949738
5478.582419	157.977798	-16.540035	24.780828
5478.585755	159.205139	-16.364700	24.663939
5478.589080	160.900055	-15.546463	23.027470
5478.592417	162.828751	-15.429573	21.741673
5478.595754	164.699005	-15.371127	20.923437
5478.599134	166.160141	-15.663354	20.455875
5478.602413	167.913498	-15.604909	19.520748
5478.605753	170.251312	-15.604909	18.585623
5478.609119	171.887787	-15.254237	17.299826
5478.612418	173.991821	-15.254237	15.604909
5478.615755	175.803619	-15.254237	14.728229
5478.619082	178.433670	-15.254237	13.500876
5478.622414	180.596130	-14.962010	12.156633
5478.625754	183.226181	-15.371127	10.227938
5478.629078	185.447113	-15.312682	9.000585
5478.632414	188.252487	-15.488018	6.721216
5478.635748	190.298065	-14.202221	5.961426
5478.639081	192.226761	-14.669784	4.324956
5478.643287	198.012848	-14.728229	-0.350672
5478.646666	200.993561	-14.786674	-3.039158
5478.650010	204.032730	-15.546463	-4.792519
5478.653310	207.071869	-15.371127	-7.890122
5478.656594	210.461716	-14.728229	-9.526592
5478.659512	213.208649	-15.137346	-12.565751
5478.662841	216.364700	-14.669784	-14.552893
5478.666175	220.280533	-14.728229	-17.066044
5478.669499	223.378128	-14.377557	-20.806547
5478.672413	226.826401	-14.085330	-23.904150
5478.675745	230.216248	-13.909994	-26.826418
5478.679074	234.541199	-13.383986	-29.748684
5478.682409	238.340164	-13.676212	-33.372299
5478.685747	241.320877	-13.033314	-36.645237
5478.689071	245.061371	-12.741087	-40.736408
5478.692419	248.801880	-13.208650	-44.886032
5478.695769	252.717712	-12.448860	-49.035652
5478.699072	256.808868	-11.689071	-51.957916
5478.702415	261.309174	-11.279953	-56.808884
5478.705738	264.932800	-10.987726	-61.776741
5478.709072	269.023956	-10.520164	-66.218582
5478.712403	273.348938	-9.234365	-71.011101
5478.715742	277.849213	-9.234365	-76.212738
5478.719072	282.115723	-8.357686	-80.946815
5478.722401	286.031555	-8.007013	-86.265343
5478.725760	289.713623	-7.481005	-90.765633
5478.729067	294.506134	-6.838106	-97.486847
5478.732408	298.947968	-5.786090	-101.519585
5478.735738	303.156036	-4.558738	-107.714783
5478.739076	307.422577	-4.266511	-113.851547
5478.742406	312.331970	-3.506721	-120.748100
5478.745740	316.423157	-2.980713	-127.410873
5478.749071	321.449432	-2.630041	-135.300995
5478.753343	331.151367	-0.818235	-149.737000
5478.756622	335.885468	-0.175336	-157.159561
5478.759919	340.502625	1.052016	-165.341904
5478.763249	345.061371	2.396260	-173.524261
5478.766609	349.912323	2.922268	-182.232620
5478.769510	354.646393	4.091175	-191.817657
5478.772846	358.328461	4.734074	-201.753357
5478.776183	363.646973	6.136762	-211.221497
5478.779521	368.205750	7.422560	-221.566345
5478.782837	372.822906	8.474577	-232.028061
5478.785735	377.732330	9.526592	-242.898895
5478.789067	382.115723	11.163063	-254.237289
5478.792401	385.973114	11.981297	-266.101685
5478.795729	390.005859	12.916424	-277.498535
5478.799101	394.798370	14.669784	-289.655151
5478.802395	398.772644	16.540035	-303.506744
5478.805733	402.045593	18.293396	-316.540039
5478.809064	405.552307	20.163647	-330.566925
5478.812402	408.708344	21.975452	-344.360016
5478.815735	411.572174	24.021040	-357.919342
5478.819066	414.611328	26.709526	-373.524261
5478.822393	416.306244	28.696669	-388.310944
5478.825722	418.059631	31.677380	-403.506714
5478.829058	419.579163	33.722969	-418.877838
5478.832393	420.514282	36.995907	-434.599640
5478.835722	421.566345	39.450611	-450.321442
5478.839061	421.624817	42.665108	-466.043243
5478.842432	421.449432	45.704266	-482.700165
5478.845731	420.748077	49.327877	-499.357086
5478.849060	418.702515	52.542370	-515.604919
5478.852394	417.475189	55.990646	-532.320251
5478.855731	414.728210	59.614258	-549.327881
5478.859055	411.981293	64.056107	-565.166565
5478.862385	408.649933	67.387489	-581.940369
5478.866591	400.058472	75.336060	-614.903564
5478.869925	394.506134	79.135010	-630.450012
5478.873256	388.953827	82.817062	-647.223877
5478.876683	381.940399	87.375801	-662.770325
5478.879509	374.985382	91.583870	-678.550598
5478.882867	367.095245	95.558151	-694.564575
5478.886187	358.094696	100.058449	-709.351257
5478.889487	348.918762	103.682053	-723.962585
5478.892814	338.573944	107.481003	-739.275269
5478.895717	327.586212	111.513733	-753.360596
5478.899064	315.897125	115.020454	-767.738159
5478.902390	303.389832	119.228516	-779.719421
5478.905723	289.947388	123.144363	-792.402100
5478.909053	275.745178	127.001747	-805.435364
5478.912389	261.776733	130.566925	-817.182922
5478.915724	246.580963	134.424316	-828.287476
5478.919051	231.092926	137.931030	-839.392212
5478.922384	214.786667	141.905319	-848.451233
5478.925715	197.954422	145.295135	-857.101135
5478.929058	180.771484	148.977203	-864.640503
5478.932385	162.302750	152.367035	-871.361755
5478.935739	144.243134	155.756866	-876.914124
5478.939059	125.306831	159.906479	-882.174194
5478.942386	106.078316	162.361191	-885.739319
5478.945715	86.440674	166.335480	-888.310913
5478.949049	66.861488	169.783752	-888.661560
5478.952386	46.814728	172.706024	-889.888977
5478.955711	26.709526	175.978958	-888.486267
5478.959042	7.890122	178.609009	-886.499146
5478.962386	-12.390414	181.881943	-884.745789
5478.965753	-31.969610	184.395081	-880.070129
5478.969054	-52.074806	187.083572	-875.394531
5478.972380	-70.309761	189.479843	-868.614868
5478.977057	-107.013443	193.395676	-853.477478
5478.979979	-125.073051	195.733490	-845.295166
5478.983300	-142.548218	197.136169	-836.236084
5478.986654	-158.796021	198.188202	-826.066589
5478.989927	-175.336060	199.590881	-815.546387
5478.992808	-191.057861	200.759796	-804.032715
5478.996140	-205.727646	200.935120	-791.174744
5478.999467	-220.631226	201.636475	-779.076599
5479.002809	-234.190536	201.402695	-766.043213
5479.005718	-247.340729	201.636475	-753.711243
5479.009065	-260.140289	201.519592	-739.625916
5479.012378	-271.244873	200.292236	-726.008179
5479.015712	-283.284637	199.473984	-712.331970
5479.019039	-294.213928	198.538864	-697.019287
5479.022372	-304.967865	196.902390	-683.401550
5479.025704	-314.786682	195.675034	-668.322632
5479.029040	-323.378143	193.804794	-653.126831
5479.032374	-331.735840	191.759201	-638.047913
5479.035725	-339.392151	189.421387	-623.027466
5479.039046	-346.171844	186.674469	-607.539490
5479.042372	-353.068390	184.745758	-591.642334
5479.045700	-359.146698	182.817062	-576.738770
5479.049039	-365.400360	179.485672	-560.783142
5479.052395	-370.192871	176.797195	-545.061340
5479.055701	-374.751617	174.050262	-529.573364
5479.059040	-378.375214	171.653992	-514.552856
5479.062374	-381.589722	168.205719	-499.064880
5479.065705	-384.219757	164.640564	-483.985992
5479.069035	-386.849792	161.893631	-468.381073
5479.072367	-388.310944	159.088257	-453.419067
5479.075700	-390.590271	155.756866	-440.444183
5479.079033	-390.999420	152.776154	-425.014587
5479.082383	-391.466980	149.853882	-410.461700
5479.086649	-390.999420	144.009354	-383.050842
5479.089959	-390.473419	141.729980	-369.842194
5479.093269	-389.304504	138.749268	-356.750427
5479.096575	-388.427826	135.885437	-343.483337
5479.099881	-386.090027	133.372299	-330.917603
5479.102802	-384.044403	131.092926	-318.994751
5479.106129	-382.349518	128.988892	-306.838104
5479.109457	-379.602570	126.358856	-295.675049
5479.112836	-376.855621	124.137924	-284.219757
5479.116145	-374.284058	121.858559	-273.699585
5479.119032	-371.829346	119.462296	-262.478088
5479.122363	-368.381073	116.656921	-252.600815
5479.125736	-365.341888	113.734665	-243.074219
5479.129029	-361.601410	111.864410	-234.190536
5479.132368	-358.153137	109.935715	-224.897720
5479.135702	-355.113953	107.597900	-216.540024
5479.139060	-351.081238	105.376968	-207.656342
5479.142367	-347.516083	103.623619	-200.000000
5479.145695	-343.483337	101.110458	-191.466980
5479.149033	-340.736420	99.240204	-184.044418
5479.152369	-337.463470	96.902397	-175.978958
5479.155693	-333.664520	94.798363	-169.842194
5479.159030	-330.040894	93.161896	-161.952072
5479.162358	-325.949738	90.707191	-155.172424
5479.165691	-322.501465	88.953827	-148.509644
5479.169028	-318.468750	87.317360	-142.898895
5479.172357	-315.020477	84.628876	-135.359436
5479.175699	-311.046173	82.875511	-129.748688
5479.179031	-307.714783	80.888367	-124.430153
5479.182360	-304.208069	78.725891	-118.118057
5479.185690	-300.876678	76.563416	-113.208649
5479.189031	-296.493256	75.043831	-107.831680
5479.192435	-292.986572	73.056694	-102.220932
5479.196966	-285.914673	69.959084	-92.168327
5479.199911	-282.583282	68.205727	-88.310928
5479.203206	-279.602570	66.686150	-83.518410
5479.206563	-275.803619	65.049675	-79.076561
5479.209895	-272.004669	63.646992	-75.102280
5479.212832	-268.848633	61.952072	-71.654007
5479.216136	-265.108124	60.783165	-67.153709
5479.219502	-262.945648	59.088253	-63.062538
5479.222778	-259.205139	57.744007	-59.555817
5479.226114	-256.399780	56.750443	-55.990646
5479.229021	-252.717712	55.523087	-52.893044
5479.232353	-249.152542	54.821743	-50.555229
5479.235684	-246.580963	53.243713	-46.697838
5479.239017	-243.892456	52.659260	-44.243134
5479.242353	-241.087082	51.607246	-41.963764
5479.245686	-238.983063	50.672119	-39.275276
5479.249014	-236.177689	49.795441	-36.294563
5479.252351	-232.846283	48.860313	-33.313854
5479.255701	-231.209824	48.451199	-31.443600
5479.259015	-228.404449	47.223846	-28.053770
5479.262348	-226.475739	46.990063	-26.826418
5479.265681	-223.378128	46.405609	-24.722383
5479.269019	-220.923447	44.769142	-22.618351
5479.272348	-218.585632	44.886032	-20.689655
5479.275694	-216.540024	44.243134	-18.234951
5479.279014	-214.728241	43.366451	-16.130919
5479.282347	-211.981293	42.372883	-15.020455
5479.285715	-209.994156	42.022209	-13.208650
5479.289020	-208.007004	40.853302	-12.039742
5479.292345	-206.487442	40.444183	-11.163063
5479.295679	-204.617187	40.327293	-8.591467
5479.299033	-203.039169	39.275276	-8.123904
5479.302348	-201.285797	39.158386	-6.078317
5479.305678	-199.357101	37.989479	-5.084745
5479.309883	-195.908813	37.814144	-2.630041
5479.313210	-194.623032	36.177673	-0.993571
5479.316626	-192.986557	35.593220	0.759790
5479.319976	-190.882523	35.359440	1.636470
5479.323196	-189.947403	34.541206	2.805377
5479.326100	-188.135590	34.365868	4.208066
5479.329469	-187.317352	33.080070	4.500292
5479.332776	-185.739334	33.255405	5.435418
5479.336099	-184.921097	32.554062	6.721216
5479.339008	-183.459961	32.028053	7.714787
5479.342347	-182.641739	31.209818	8.649913
5479.345674	-181.063705	31.209818	9.468147
5479.349005	-180.011688	30.976036	10.637054
5479.352345	-178.667450	30.216248	11.163063
5479.355673	-177.264755	30.157801	11.455289
5479.359005	-176.329636	29.865574	12.390414
5479.362345	-175.336060	29.047340	13.033314
5479.365714	-173.991821	28.813559	14.143775
5479.369011	-173.465805	28.053770	15.137346
5479.372362	-172.881348	28.053770	15.780245
5479.375669	-172.121567	27.936878	16.014027
5479.379003	-171.478668	27.761543	15.312682
5479.382344	-170.426651	27.703098	16.540035
5479.385670	-169.783752	27.060200	16.715372
5479.389010	-169.608414	27.410872	18.059614
5479.392337	-168.556396	27.235535	17.767387
5479.395675	-167.679718	26.767973	18.059614
5479.399006	-167.562836	26.767973	18.644068
5479.402340	-166.744583	26.475746	19.286966
5479.405669	-166.452377	26.417299	18.819405
5479.409021	-165.867920	26.417299	20.338982
5479.412337	-165.400345	26.358854	20.163647
5479.415671	-165.108124	26.709526	19.579193
5479.419936	-164.406769	26.826418	20.455875
5479.423185	-163.939209	26.183519	20.163647
5479.426516	-163.705429	26.534191	19.812975
5479.429852	-163.296326	26.183519	19.812975
5479.433218	-163.588547	25.949738	20.280537
5479.436093	-163.120987	25.832848	20.338982
5479.439430	-163.354767	26.066628	20.397429
5479.442771	-163.062531	25.014612	20.455875
5479.446112	-163.179428	25.365284	20.338982
5479.449027	-163.062531	25.189949	19.929865
5479.452378	-164.172989	24.663939	20.455875
5479.455666	-163.530106	24.488602	20.455875
5479.459001	-163.997665	24.956165	20.455875
5479.462337	-163.880783	24.430157	20.105202
5479.465661	-164.289886	24.663939	19.637638
5479.468997	-164.114563	24.079485	19.988310
5479.472331	-164.523666	23.904150	19.637638
5479.475663	-165.225021	23.962595	19.228521
5479.479000	-165.166565	23.611923	19.345411
5479.482332	-165.634125	23.962595	19.111629
5479.485660	-165.926361	24.254822	18.877850
5479.488998	-165.867920	23.845703	18.702513
5479.492328	-167.387497	23.670368	18.702513
5479.495681	-167.445938	23.845703	17.942724
5479.498990	-168.088837	23.728813	18.293396
5479.502326	-168.907074	23.495031	18.001169
5479.505660	-169.140854	23.904150	17.942724
5479.508989	-169.374634	23.611923	16.715372
5479.512334	-170.660431	24.254822	16.364700
5479.515667	-171.244888	23.670368	16.364700
5479.518990	-172.063126	23.845703	15.546463
5479.522324	-173.290482	23.728813	15.429573
5479.526952	-174.108704	24.313267	14.552893
5479.529836	-175.862076	24.547049	13.559322
5479.533206	-177.264755	24.371712	13.383986
5479.536533	-177.849213	24.663939	12.799533
5479.539958	-178.375214	25.657511	11.805962
5479.542759	-179.777908	25.423729	11.630626
5479.546097	-180.829926	25.599066	9.818819
5479.549418	-182.349503	26.183519	8.942139
5479.552743	-183.635300	25.599066	7.773232
5479.556078	-185.447113	26.183519	6.428989
5479.558990	-186.206894	26.417299	5.961426
5479.562324	-188.135590	26.534191	5.961426
5479.565657	-189.538269	27.293980	5.143191
5479.568992	-190.414963	26.884863	3.565166
5479.572318	-192.285217	27.410872	2.396260
5479.575657	-194.038574	27.469316	1.519579
5479.578988	-195.441254	27.469316	0.350672
5479.582337	-197.253067	27.293980	-1.461134
5479.585652	-198.889542	27.469316	-3.156049
5479.588985	-200.701355	28.053770	-4.383401
5479.592314	-202.922272	27.995323	-5.961426
5479.595654	-204.324966	28.170660	-6.662770
5479.598993	-206.838104	28.638224	-8.591467
5479.602320	-208.708359	28.521332	-10.870836
5479.605654	-210.695511	28.462887	-10.929281
5479.608987	-212.624191	28.813559	-13.793103
5479.612320	-215.078903	28.696669	-15.078900
5479.615646	-217.475159	28.755114	-16.890707
5479.618984	-218.877838	28.696669	-17.708942
5479.622320	-222.033905	29.105785	-20.105202
5479.625687	-224.021027	29.164230	-22.267679
5479.628980	-226.534195	29.514902	-24.605494
5479.632318	-228.872009	30.216248	-26.826418
5479.636538	-233.898300	30.216248	-30.976036
5479.639909	-237.054352	31.034481	-33.606079
5479.643268	-239.392166	31.502045	-35.593220
5479.646585	-241.262405	31.443600	-37.931034
5479.649861	-244.184692	32.144947	-40.794857
5479.652735	-247.340729	32.028053	-43.717125
5479.656073	-249.970764	33.196960	-46.054939
5479.659407	-253.185272	32.670956	-50.263004
5479.662728	-256.282867	33.839859	-53.068382
5479.665649	-259.438934	34.190533	-56.925774
5479.668992	-263.296326	35.125656	-59.964931
5479.672309	-266.277039	35.242550	-63.822330
5479.675645	-269.783752	36.002338	-67.796616
5479.678977	-272.472229	36.294563	-71.420219
